EXPLAIN
TAG	EISPOT
TITLE	LABEL	Potentiostatic EIS	Test Identifier
DATE	LABEL	21/7/2026	Date
TIME	LABEL	19:45:15	Time
NOTES	NOTES	1	Notes...
	
PSTAT	PSTAT	REF3000-46189	Potentiostat
VDC	POTEN	1,81854E+000	F	Last Measured Potential (V)
FREQINIT	QUANT	1,00000E+005	Initial Freq. (Hz)
FREQFINAL	QUANT	1,00000E-001	Final Freq. (Hz)
PTSPERDEC	QUANT	1,00000E+001	Points/decade
VAC	QUANT	5,00000E+000	AC Voltage (mV rms)
AREA	QUANT	2,50000E+001	Sample Area (cm^2)
SPEED	SELECTOR	1	Optimize for:
DRIFTCOR	SELECTOR	0	Drift Correction
THD	SELECTOR	0	THD
ZGUESS	QUANT	2,00000E-002	Estimated Z (ohms)
EOC	QUANT	0,6117225	Open Circuit (V)
SEQUENCER	TOGGLE	TRUE	Run as Sequence
PSTATMODEL	IQUANT	6	Pstat Model
PSTATSECTION	LABEL	REF30K-46189	Pstat Section
PSTATSERIALNO	LABEL	46189	Pstat Serial Number
CTRLMODE	IQUANT	1	Control Mode
ELECTROMETER	IQUANT	0	RE=0 or CS=1
IESTAB	IQUANT	0	I/E Stability
CASPEED	IQUANT	3	Control Amp Speed
CONVENTION	IQUANT	1	Current Convention
ICHRANGE	IQUANT	2	Ich Range
ICHRANGEMODE	TOGGLE	F	Ich Auto Range
ICHOFFSETENABLE	TOGGLE	T	Ich Offset Enable
ICHOFFSET	QUANT	0	Ich Offset (V)
ICHFILTER	IQUANT	3	Ich Filter
VCHRANGE	IQUANT	2	Vch Range
VCHRANGEMODE	TOGGLE	F	Vch Auto Range
VCHOFFSETENABLE	TOGGLE	T	Vch Offset Enable
VCHOFFSET	QUANT	0	Vch Offset (V)
VCHFILTER	IQUANT	3	Vch Filter
ACHRANGE	IQUANT	2	Ach Range
ACHOFFSETENABLE	TOGGLE	F	Ach Offset Enable
ACHOFFSET	QUANT	0	Ach Offset (V)
ACHFILTER	IQUANT	1	Ach Filter
IERANGELOWERLIMIT	IQUANT	13	I/E Range Lower Limit
IERANGEMODE	TOGGLE	F	I/E AutoRange
IERANGE	IQUANT	13	I/E Range
POSFEEDENABLE	TOGGLE	F	Positive Feedback IR Comp
POSFEEDRESISTANCE	QUANT	0	Positive Feedback Resistance (ohm)
ACHSELECT	IQUANT	4	Ach Select
SENSECABLEID	IQUANT	14	Sense Cable ID
PWRCABLEID	IQUANT	8	Power Cable ID
DCCALDATE	LABEL	10/1/2025	DC Calibration Date
ACCALDATE	LABEL	10/1/2025	AC Calibration Date
THERMOSELECT	IQUANT	1	Thermo Select
FRAMEWORKVERSION	LABEL	7.10.1	Framework Version
INSTRUMENTVERSION	LABEL	4.80	Instrument Version
COMMVERSION	LABEL	5.10	Communications Version
CPUPLDVERSION	LABEL	6.00	CPU PLD Version
CTRLPLDVERSION	LABEL	3.21	CTRL PLD Version
PSTATPLDVERSION	LABEL	0.00	PSTAT PLD Version
BOOSTERDCCALDATE	LABEL	10/1/2025	Booster DC Calibration Date
ZCURVE	TABLE
	Pt	Time	Freq	Zreal	Zimag	Zsig	Zmod	Zphz	Idc	Vdc	IERange	Imod	Vmod	Temp
	#	s	Hz	ohm	ohm	V	ohm	°	A	V	#	A	V	°C
	0	3	100078,1	0,013621	0,0066568	1	0,0151606	26,04553	17,42642	1,815491	13	0,3309774	0,0049966	63,02795
	1	5	79453,13	0,0133795	0,0054651	1	0,0144526	22,21855	17,41736	1,815477	13	0,4550639	0,0065552	63,02996
	2	6	63140,62	0,0131719	0,0044883	1	0,0139156	18,81632	17,41701	1,815471	13	0,4593188	0,0063742	63,0139
	3	8	50203,12	0,0129904	0,0036857	1	0,0135031	15,84018	17,41444	1,815477	13	0,462033	0,006225	63,0117
	4	9	39890,62	0,0128436	0,0030188	1	0,0131936	13,22701	17,41113	1,815467	13	0,4704314	0,006196	63,0165
	5	12	31640,63	0,0127203	0,0024653	1	0,012957	10,96856	17,41103	1,815458	13	0,4688696	0,0060675	63,0213
	6	13	25171,88	0,012621	0,0020169	1	0,0127811	9,079273	17,41092	1,81548	13	0,4646205	0,0059331	63,01743
	7	15	20015,62	0,0125476	0,0016483	1	0,0126554	7,483522	17,41224	1,815465	13	0,4589664	0,0058049	63,015
	8	16	15890,62	0,0124796	0,0013393	1	0,0125512	6,125661	17,41308	1,815467	13	0,4529081	0,0056823	63,01532
	9	18	12609,38	0,0124336	0,0010842	1	0,0124808	4,983628	17,41307	1,815477	13	0,4429706	0,0055272	63,01346
	10	20	10078,13	0,0123971	0,0008844	1	0,0124286	4,080307	17,40947	1,815472	13	0,433172	0,0053828	63,00921
	11	21	8015,625	0,0123653	0,0007101	1	0,0123856	3,286589	17,41139	1,815459	13	0,4269894	0,005288	63,00744
	12	23	6328,125	0,0123386	0,0005661	1	0,0123515	2,626867	17,41055	1,815467	13	0,4220428	0,0052125	63,01345
	13	25	5015,625	0,0123166	0,0004477	1	0,0123247	2,081569	17,40755	1,815467	13	0,417376	0,0051438	62,99641
	14	27	3984,375	0,0123046	0,0003478	1	0,0123095	1,618932	17,40463	1,81547	13	0,4141142	0,0050974	63,00431
	15	28	3170,956	0,0122895	0,0002592	1	0,0122922	1,208184	17,4027	1,815468	13	0,4118254	0,0050622	62,9934
	16	30	2527,573	0,0122847	0,0001813	1	0,0122861	0,8454211	17,40101	1,81547	13	0,4101696	0,0050393	62,98385
	17	31	1976,103	0,0122816	0,0001074	1	0,0122821	0,5010644	17,39856	1,815464	13	0,408993	0,0050233	62,9808
	18	33	1577,524	0,0122864	4,656803E-005	1	0,0122865	0,2171619	17,39579	1,815463	13	0,4081128	0,0050143	62,97119
	19	35	1265,625	0,0122955	-7,206164E-006	1	0,0122955	-0,0335801	17,39718	1,815472	13	0,4074626	0,0050099	62,9627
	20	37	998,264	0,0123161	-6,176744E-005	1	0,0123162	-0,2873468	17,39151	1,815459	13	0,4062705	0,0050037	62,9606
	21	38	796,875	0,0123358	-0,0001131	1	0,0123364	-0,5251397	17,38386	1,815472	13	0,4054035	0,0050012	62,94846
	22	40	627,7902	0,0123584	-0,0001618	1	0,0123595	-0,7501978	17,3842	1,815457	13	0,4044552	0,0049988	62,94928
	23	41	505,5147	0,0123913	-0,0002137	1	0,0123931	-0,987853	17,37651	1,815451	13	0,3970355	0,0049585	62,93679
	24	43	397,9953	0,0124279	-0,0002613	1	0,0124307	-1,204391	17,37955	1,815467	13	0,4036305	0,00504	62,93579
	25	44	315,5048	0,0124698	-0,0003072	1	0,0124736	-1,411026	17,37311	1,815462	13	0,4002017	0,0050054	62,92102
	26	46	252,4038	0,0125153	-0,0003569	1	0,0125204	-1,633652	17,37115	1,815445	13	0,3984624	0,0049972	62,9049
	27	47	198,6229	0,0125723	-0,0004091	1	0,012579	-1,863889	17,37504	1,815463	13	0,3968642	0,0049972	62,91619
	28	49	158,3615	0,0126324	-0,0004598	1	0,0126407	-2,084621	17,37462	1,815464	13	0,3948881	0,0049948	62,91302
	29	50	125,558	0,0127057	-0,0005158	1	0,0127162	-2,324806	17,37267	1,815455	13	0,3928332	0,0049973	62,91016
	30	52	100,4464	0,0127845	-0,0005697	1	0,0127972	-2,551587	17,37512	1,815463	13	0,390206	0,0049948	62,89396
	31	53	79,00281	0,0128819	-0,0006258	1	0,0128971	-2,781301	17,37183	1,815442	13	0,3872662	0,0049954	62,89904
	32	55	63,3446	0,0129876	-0,0006798	1	0,0130054	-2,996336	17,37131	1,815451	13	0,3838213	0,0049922	62,89145
	33	56	50,22321	0,013111	-0,0007248	1	0,013131	-3,164195	17,37072	1,815461	13	0,379473	0,0049832	62,89139
	34	58	38,42213	0,0132618	-0,0007651	1	0,0132838	-3,301862	17,37234	1,815456	13	0,3731471	0,004957	62,90473
	35	59	31,25	0,0133893	-0,0007858	1	0,0134124	-3,358962	17,37191	1,815465	13	0,3673396	0,004927	62,90009
	36	61	24,93351	0,0135398	-0,000776	1	0,0135621	-3,280119	17,37366	1,815449	13	0,3556321	0,0048232	62,90001
	37	63	19,86229	0,0136788	-0,0007667	1	0,0137003	-3,207965	17,37796	1,815443	13	0,3936903	0,0053937	62,90041
	38	64	15,625	0,0138024	-0,0007346	1	0,0138219	-3,046375	17,37639	1,815453	13	0,3616441	0,0049987	62,9005
	39	65	12,40079	0,0139874	-0,0006715	1	0,0140035	-2,748583	17,37461	1,815436	13	0,3569496	0,0049986	62,90542
	40	67	9,93114	0,0140589	-0,0006156	1	0,0140723	-2,507344	17,37537	1,815449	13	0,3554501	0,005002	62,90405
	41	69	7,944915	0,0141403	-0,0005754	1	0,014152	-2,330244	17,37182	1,815451	13	0,3533606	0,0050008	62,90722
	42	71	6,317385	0,0142458	-0,0004956	1	0,0142544	-1,992417	17,372	1,815456	13	0,3506744	0,0049987	62,90392
	43	73	5,008013	0,0143933	-0,0004295	1	0,0143997	-1,709063	17,36843	1,815441	13	0,3474718	0,0050035	62,9092
	44	76	3,945707	0,0143369	-0,0003853	1	0,0143421	-1,539493	17,37373	1,815453	13	0,3486069	0,0049997	62,9094
	45	79	3,158693	0,0143989	-0,0003346	1	0,0144028	-1,331087	17,37241	1,815444	13	0,3473831	0,0050033	62,9177
	46	81	2,504006	0,014423	-0,0003079	1	0,0144263	-1,22309	17,37109	1,815445	13	0,3352541	0,004843	62,91306
	47	85	1,998082	0,0144509	-0,0003231	1	0,0144545	-1,280939	17,37143	1,815449	13	0,3516441	0,0050874	62,91132
	48	90	1,584686	0,0144792	-0,0003121	1	0,0144825	-1,23499	17,36973	1,815445	13	0,3475633	0,0050365	62,90453
	49	96	1,266892	0,0145406	-0,0002702	1	0,0145431	-1,064741	17,36992	1,815447	13	0,3449593	0,0050186	62,90135
	50	102	0,999041	0,0145736	-0,0002351	1	0,0145754	-0,9242827	17,36334	1,815449	13	0,3430744	0,0050016	62,89368
	51	109	0,7923428	0,0145911	-0,0002436	1	0,0145931	-0,95654	17,3599	1,815445	13	0,3431426	0,0050083	62,88689
	52	117	0,6334459	0,0146081	-0,0002512	1	0,0146102	-0,984998	17,36027	1,815451	13	0,342266	0,0050011	62,88203
	53	125	0,5040323	0,0146599	-0,0001998	1	0,0146613	-0,7806761	17,36016	1,815447	13	0,3410198	0,0050001	62,89268
	54	136	0,400641	0,0146703	-0,0002036	1	0,0146717	-0,7952567	17,3619	1,81545	13	0,340604	0,0049974	62,90441
	55	148	0,316723	0,0146778	-0,000216	1	0,0146794	-0,8430554	17,3614	1,815448	13	0,3407225	0,0050017	62,91694
	56	162	0,2520161	0,0147343	-0,0002085	1	0,0147357	-0,8107952	17,35674	1,815447	13	0,3393751	0,005001	62,92859
	57	179	0,2003205	0,014739	-0,000207	1	0,0147405	-0,8048008	17,35519	1,81545	13	0,3393607	0,0050024	62,91895
	58	201	0,1588983	0,0147248	-0,0001991	1	0,0147262	-0,7745113	17,33742	1,81545	13	0,3394212	0,0049984	62,89295
	59	226	0,1260081	0,0147967	-0,0002102	1	0,0147982	-0,8140588	17,3358	1,815447	13	0,3378881	0,0050001	62,89562
	60	265	0,1001603	0,0148274	-0,0001739	1	0,0148284	-0,6718576	17,33403	1,815446	13	0,3371822	0,0049999	62,93571
