EXPLAIN
TAG	EISPOT
TITLE	LABEL	Potentiostatic EIS	Test Identifier
DATE	LABEL	14/7/2026	Date
TIME	LABEL	3:10:53	Time
NOTES	NOTES	1	Notes...
	
PSTAT	PSTAT	REF3000-46189	Potentiostat
VDC	POTEN	1,52066E+000	F	Last Measured Potential (V)
FREQINIT	QUANT	1,00000E+005	Initial Freq. (Hz)
FREQFINAL	QUANT	1,00000E-001	Final Freq. (Hz)
PTSPERDEC	QUANT	1,00000E+001	Points/decade
VAC	QUANT	5,00000E+000	AC Voltage (mV rms)
AREA	QUANT	2,50000E+001	Sample Area (cm^2)
SPEED	SELECTOR	1	Optimize for:
DRIFTCOR	SELECTOR	0	Drift Correction
THD	SELECTOR	0	THD
ZGUESS	QUANT	2,00000E-002	Estimated Z (ohms)
EOC	QUANT	0,6499035	Open Circuit (V)
SEQUENCER	TOGGLE	TRUE	Run as Sequence
PSTATMODEL	IQUANT	6	Pstat Model
PSTATSECTION	LABEL	REF30K-46189	Pstat Section
PSTATSERIALNO	LABEL	46189	Pstat Serial Number
CTRLMODE	IQUANT	1	Control Mode
ELECTROMETER	IQUANT	0	RE=0 or CS=1
IESTAB	IQUANT	0	I/E Stability
CASPEED	IQUANT	3	Control Amp Speed
CONVENTION	IQUANT	1	Current Convention
ICHRANGE	IQUANT	2	Ich Range
ICHRANGEMODE	TOGGLE	F	Ich Auto Range
ICHOFFSETENABLE	TOGGLE	T	Ich Offset Enable
ICHOFFSET	QUANT	0	Ich Offset (V)
ICHFILTER	IQUANT	3	Ich Filter
VCHRANGE	IQUANT	2	Vch Range
VCHRANGEMODE	TOGGLE	F	Vch Auto Range
VCHOFFSETENABLE	TOGGLE	T	Vch Offset Enable
VCHOFFSET	QUANT	0	Vch Offset (V)
VCHFILTER	IQUANT	3	Vch Filter
ACHRANGE	IQUANT	2	Ach Range
ACHOFFSETENABLE	TOGGLE	F	Ach Offset Enable
ACHOFFSET	QUANT	0	Ach Offset (V)
ACHFILTER	IQUANT	1	Ach Filter
IERANGELOWERLIMIT	IQUANT	13	I/E Range Lower Limit
IERANGEMODE	TOGGLE	F	I/E AutoRange
IERANGE	IQUANT	13	I/E Range
POSFEEDENABLE	TOGGLE	F	Positive Feedback IR Comp
POSFEEDRESISTANCE	QUANT	0	Positive Feedback Resistance (ohm)
ACHSELECT	IQUANT	4	Ach Select
SENSECABLEID	IQUANT	14	Sense Cable ID
PWRCABLEID	IQUANT	8	Power Cable ID
DCCALDATE	LABEL	10/1/2025	DC Calibration Date
ACCALDATE	LABEL	10/1/2025	AC Calibration Date
THERMOSELECT	IQUANT	1	Thermo Select
FRAMEWORKVERSION	LABEL	7.10.1	Framework Version
INSTRUMENTVERSION	LABEL	4.80	Instrument Version
COMMVERSION	LABEL	5.10	Communications Version
CPUPLDVERSION	LABEL	6.00	CPU PLD Version
CTRLPLDVERSION	LABEL	3.21	CTRL PLD Version
PSTATPLDVERSION	LABEL	0.00	PSTAT PLD Version
BOOSTERDCCALDATE	LABEL	10/1/2025	Booster DC Calibration Date
ZCURVE	TABLE
	Pt	Time	Freq	Zreal	Zimag	Zsig	Zmod	Zphz	Idc	Vdc	IERange	Imod	Vmod	Temp
	#	s	Hz	ohm	ohm	V	ohm	°	A	V	#	A	V	°C
	0	4	100078,1	0,0136961	0,0067609	1	0,0152739	26,27278	1,324133	1,519047	13	0,3287595	0,0050002	63,4395
	1	5	79453,13	0,0134634	0,0055437	1	0,0145601	22,38	1,324865	1,519047	13	0,4442259	0,0064467	63,43849
	2	7	63140,62	0,0132628	0,0045512	1	0,014022	18,93989	1,324897	1,519046	13	0,4546778	0,006358	63,43406
	3	9	50203,12	0,013091	0,0037399	1	0,0136148	15,94396	1,323452	1,519041	13	0,4598425	0,0062467	63,43404
	4	11	39890,62	0,0129392	0,0030561	1	0,0132952	13,28919	1,323324	1,51904	13	0,4637949	0,0061556	63,42925
	5	12	31640,63	0,0128211	0,0024947	1	0,0130615	11,01106	1,322404	1,519035	13	0,4644545	0,0060589	63,42543
	6	14	25171,88	0,0127281	0,0020392	1	0,0128905	9,102279	1,323109	1,519046	13	0,4612654	0,0059407	63,42303
	7	15	20015,62	0,012651	0,001657	1	0,0127591	7,462104	1,321986	1,519034	13	0,4560691	0,0058155	63,42309
	8	17	15890,62	0,0125868	0,0013425	1	0,0126582	6,088232	1,320937	1,519037	13	0,4498005	0,0056914	63,43143
	9	19	12609,38	0,012539	0,0010798	1	0,0125854	4,921923	1,322245	1,51906	13	0,4397704	0,0055333	63,40728
	10	20	10078,13	0,0125033	0,00087	1	0,0125336	3,980234	1,321488	1,519047	13	0,4296086	0,0053836	63,41843
	11	22	8015,625	0,0124774	0,0006915	1	0,0124966	3,172006	1,31917	1,519043	13	0,423124	0,005287	63,40138
	12	23	6328,125	0,0124537	0,0005353	1	0,0124652	2,461457	1,3192	1,519046	13	0,4178759	0,0052086	63,41416
	13	25	5015,625	0,0124354	0,0004102	1	0,0124422	1,889258	1,320107	1,519045	13	0,4129858	0,0051382	63,39999
	14	27	3984,375	0,0124267	0,0002981	1	0,0124303	1,374168	1,320161	1,519042	13	0,4093583	0,0050883	63,40401
	15	28	3170,956	0,0124151	0,0002068	1	0,0124168	0,95441	1,319435	1,519058	13	0,4072423	0,0050566	63,39228
	16	30	2527,573	0,0124199	0,0001201	1	0,0124204	0,5541698	1,318806	1,519041	13	0,4054433	0,0050357	63,39642
	17	32	1976,103	0,0124228	3,295059E-005	1	0,0124229	0,1519722	1,317232	1,519041	13	0,4044679	0,0050246	63,40128
	18	33	1577,524	0,0124337	-4,435836E-005	1	0,0124338	-0,2044072	1,319329	1,519039	13	0,4033047	0,0050146	63,39424
	19	35	1265,625	0,0124472	-0,0001157	1	0,0124478	-0,53266	1,317577	1,519048	13	0,4022649	0,0050073	63,3767
	20	37	998,264	0,0124729	-0,0001913	1	0,0124744	-0,8788232	1,317428	1,519042	13	0,4014311	0,0050076	63,38453
	21	38	796,875	0,0125062	-0,0002608	1	0,0125089	-1,194752	1,317854	1,519047	13	0,4000728	0,0050045	63,38395
	22	40	627,7902	0,0125454	-0,000342	1	0,0125501	-1,561341	1,316794	1,519024	13	0,3984041	0,005	63,37525
	23	41	505,5147	0,0125825	-0,0004192	1	0,0125895	-1,907984	1,317811	1,519037	13	0,3911312	0,0049622	63,38355
	24	43	397,9953	0,0126351	-0,000505	1	0,0126451	-2,28891	1,318249	1,519043	13	0,3971054	0,0050441	63,39171
	25	44	315,5048	0,0126951	-0,0005995	1	0,0127092	-2,703797	1,318945	1,519038	13	0,39309	0,0050094	63,38966
	26	46	252,4038	0,01276	-0,0007003	1	0,0127792	-3,141506	1,319309	1,519041	13	0,390276	0,0049957	63,39028
	27	47	198,6229	0,01284	-0,0008235	1	0,0128664	-3,66985	1,320172	1,519044	13	0,3877935	0,0049945	63,38559
	28	49	158,3615	0,0129329	-0,0009546	1	0,0129681	-4,221321	1,319842	1,519042	13	0,3849793	0,0049956	63,39296
	29	51	125,558	0,0130433	-0,0011084	1	0,0130903	-4,857149	1,31855	1,519039	13	0,3814889	0,0049958	63,385
	30	52	100,4464	0,0131655	-0,0012771	1	0,0132273	-5,540761	1,320329	1,519037	13	0,3775561	0,0049953	63,38919
	31	54	79,00281	0,0133249	-0,0014833	1	0,0134072	-6,351943	1,319522	1,51904	13	0,3725017	0,004995	63,38624
	32	56	63,3446	0,0135017	-0,0016968	1	0,0136079	-7,162879	1,320708	1,519043	13	0,3668176	0,0049921	63,37774
	33	57	50,22321	0,0137225	-0,0019438	1	0,0138595	-8,062152	1,320079	1,519032	13	0,3595056	0,0049829	63,38808
	34	59	38,42213	0,0140357	-0,0022565	1	0,0142159	-9,133391	1,32116	1,519044	13	0,3487226	0,0049576	63,38636
	35	61	31,25	0,01431	-0,0025166	1	0,0145296	-9,97429	1,320614	1,519036	13	0,3387504	0,004922	63,38713
	36	62	24,93351	0,0146608	-0,0028027	1	0,0149263	-10,8228	1,323752	1,519056	13	0,3227758	0,0048179	63,40439
	37	64	19,86229	0,0150823	-0,0031124	1	0,0154001	-11,66006	1,320241	1,519038	13	0,3512487	0,0054093	63,38864
	38	65	15,625	0,0155862	-0,0034405	1	0,0159614	-12,44788	1,316978	1,51905	13	0,3132644	0,0050002	63,39348
	39	67	12,40079	0,0160737	-0,0037751	1	0,0165111	-13,21702	1,317191	1,519017	13	0,3025633	0,0049957	63,40581
	40	68	9,93114	0,0165052	-0,0041044	1	0,0170079	-13,96476	1,321196	1,51904	13	0,2943642	0,0050065	63,40638
	41	70	7,944915	0,0169768	-0,0044864	1	0,0175596	-14,80304	1,323743	1,519045	13	0,2845713	0,004997	63,4146
	42	72	6,317385	0,0175373	-0,0049543	1	0,0182236	-15,77516	1,324864	1,519039	13	0,2743886	0,0050004	63,41565
	43	74	5,008013	0,0182067	-0,0055087	1	0,0190218	-16,83399	1,325403	1,519047	13	0,2629028	0,0050009	63,42968
	44	77	3,945707	0,0190059	-0,00617	1	0,0199823	-17,98525	1,32375	1,519035	13	0,2503198	0,005002	63,43299
	45	80	3,158693	0,0199056	-0,0068527	1	0,0210521	-18,99647	1,32381	1,519035	13	0,2376415	0,0050028	63,43174
	46	83	2,504006	0,0211024	-0,0075618	1	0,0224163	-19,71447	1,325124	1,519043	13	0,215928	0,0048469	63,43314
	47	87	1,998082	0,0225387	-0,0081652	1	0,0239721	-19,91411	1,325853	1,519045	13	0,2121177	0,0050895	63,43525
	48	92	1,584686	0,024234	-0,0085778	1	0,0257073	-19,49167	1,325815	1,519045	13	0,1957403	0,0050349	63,42102
	49	98	1,266892	0,0260095	-0,0086842	1	0,0274209	-18,46338	1,324396	1,519045	13	0,1828169	0,0050149	63,43834
	50	104	0,999041	0,0279371	-0,0084119	1	0,0291761	-16,75708	1,324462	1,519046	13	0,1715966	0,0050077	63,4283
	51	110	0,7923428	0,0295828	-0,0078106	1	0,0305965	-14,7901	1,325871	1,519047	13	0,1634375	0,0050014	63,42294
	52	118	0,6334459	0,0309688	-0,0069965	1	0,0317493	-12,73061	1,32382	1,519043	13	0,1574957	0,0050008	63,4106
	53	128	0,5040323	0,0321725	-0,0060834	1	0,0327426	-10,70752	1,322197	1,519047	13	0,1527031	0,0050002	63,40728
	54	139	0,400641	0,0329927	-0,0050718	1	0,0333803	-8,739454	1,324529	1,519048	13	0,1498563	0,0050024	63,42318
	55	153	0,316723	0,0334972	-0,00422	1	0,033762	-7,180325	1,326131	1,519046	13	0,1481739	0,0050028	63,44732
	56	171	0,2520161	0,0338204	-0,0033768	1	0,0339886	-5,70184	1,325979	1,519048	13	0,1470655	0,0049986	63,4567
	57	188	0,2003205	0,0341536	-0,0028318	1	0,0342708	-4,739729	1,323998	1,519047	13	0,1459432	0,0050016	63,44426
	58	215	0,1588983	0,0342431	-0,002308	1	0,0343208	-3,855911	1,32438	1,519047	13	0,1456858	0,0050001	63,48051
	59	246	0,1260081	0,0344023	-0,001887	1	0,034454	-3,139621	1,325546	1,519046	13	0,1451459	0,0050009	63,48532
	60	285	0,1001603	0,0343603	-0,0015035	1	0,0343932	-2,505467	1,326423	1,519047	13	0,1453784	0,005	63,48069
