EXPLAIN
TAG	EISPOT
TITLE	LABEL	Potentiostatic EIS	Test Identifier
DATE	LABEL	21/7/2026	Date
TIME	LABEL	19:36:48	Time
NOTES	NOTES	1	Notes...
	
PSTAT	PSTAT	REF3000-46189	Potentiostat
VDC	POTEN	1,67558E+000	F	Last Measured Potential (V)
FREQINIT	QUANT	1,00000E+005	Initial Freq. (Hz)
FREQFINAL	QUANT	1,00000E-001	Final Freq. (Hz)
PTSPERDEC	QUANT	1,00000E+001	Points/decade
VAC	QUANT	5,00000E+000	AC Voltage (mV rms)
AREA	QUANT	2,50000E+001	Sample Area (cm^2)
SPEED	SELECTOR	1	Optimize for:
DRIFTCOR	SELECTOR	0	Drift Correction
THD	SELECTOR	0	THD
ZGUESS	QUANT	2,00000E-002	Estimated Z (ohms)
EOC	QUANT	0,6117225	Open Circuit (V)
SEQUENCER	TOGGLE	TRUE	Run as Sequence
PSTATMODEL	IQUANT	6	Pstat Model
PSTATSECTION	LABEL	REF30K-46189	Pstat Section
PSTATSERIALNO	LABEL	46189	Pstat Serial Number
CTRLMODE	IQUANT	1	Control Mode
ELECTROMETER	IQUANT	0	RE=0 or CS=1
IESTAB	IQUANT	0	I/E Stability
CASPEED	IQUANT	3	Control Amp Speed
CONVENTION	IQUANT	1	Current Convention
ICHRANGE	IQUANT	2	Ich Range
ICHRANGEMODE	TOGGLE	F	Ich Auto Range
ICHOFFSETENABLE	TOGGLE	T	Ich Offset Enable
ICHOFFSET	QUANT	0	Ich Offset (V)
ICHFILTER	IQUANT	3	Ich Filter
VCHRANGE	IQUANT	2	Vch Range
VCHRANGEMODE	TOGGLE	F	Vch Auto Range
VCHOFFSETENABLE	TOGGLE	T	Vch Offset Enable
VCHOFFSET	QUANT	0	Vch Offset (V)
VCHFILTER	IQUANT	3	Vch Filter
ACHRANGE	IQUANT	2	Ach Range
ACHOFFSETENABLE	TOGGLE	F	Ach Offset Enable
ACHOFFSET	QUANT	0	Ach Offset (V)
ACHFILTER	IQUANT	1	Ach Filter
IERANGELOWERLIMIT	IQUANT	13	I/E Range Lower Limit
IERANGEMODE	TOGGLE	F	I/E AutoRange
IERANGE	IQUANT	13	I/E Range
POSFEEDENABLE	TOGGLE	F	Positive Feedback IR Comp
POSFEEDRESISTANCE	QUANT	0	Positive Feedback Resistance (ohm)
ACHSELECT	IQUANT	4	Ach Select
SENSECABLEID	IQUANT	14	Sense Cable ID
PWRCABLEID	IQUANT	8	Power Cable ID
DCCALDATE	LABEL	10/1/2025	DC Calibration Date
ACCALDATE	LABEL	10/1/2025	AC Calibration Date
THERMOSELECT	IQUANT	1	Thermo Select
FRAMEWORKVERSION	LABEL	7.10.1	Framework Version
INSTRUMENTVERSION	LABEL	4.80	Instrument Version
COMMVERSION	LABEL	5.10	Communications Version
CPUPLDVERSION	LABEL	6.00	CPU PLD Version
CTRLPLDVERSION	LABEL	3.21	CTRL PLD Version
PSTATPLDVERSION	LABEL	0.00	PSTAT PLD Version
BOOSTERDCCALDATE	LABEL	10/1/2025	Booster DC Calibration Date
ZCURVE	TABLE
	Pt	Time	Freq	Zreal	Zimag	Zsig	Zmod	Zphz	Idc	Vdc	IERange	Imod	Vmod	Temp
	#	s	Hz	ohm	ohm	V	ohm	°	A	V	#	A	V	°C
	0	4	100078,1	0,0136275	0,0067178	1	0,0151933	26,24139	8,518121	1,673014	13	0,3304946	0,005	63,09575
	1	6	79453,13	0,0133882	0,0055114	1	0,0144782	22,37525	8,515076	1,673016	13	0,4483818	0,0064704	63,10527
	2	7	63140,62	0,0131843	0,0045282	1	0,0139403	18,95533	8,514055	1,673021	13	0,4550164	0,0063257	63,09387
	3	10	50203,12	0,0130044	0,0037203	1	0,0135261	15,96484	8,515877	1,673019	13	0,4591419	0,0061966	63,09933
	4	11	39890,62	0,0128597	0,0030492	1	0,0132163	13,33903	8,515424	1,673016	13	0,4709837	0,0062139	63,09959
	5	13	31640,63	0,012737	0,002487	1	0,0129776	11,04827	8,513358	1,673029	13	0,4710234	0,0061051	63,09368
	6	14	25171,88	0,0126413	0,0020313	1	0,0128034	9,128483	8,514958	1,673024	13	0,4692303	0,0060025	63,08964
	7	16	20015,62	0,0125631	0,001661	1	0,0126724	7,53166	8,513419	1,673012	13	0,465643	0,0058973	63,08934
	8	18	15890,62	0,0124999	0,0013432	1	0,0125718	6,133526	8,514899	1,673016	13	0,4595912	0,0057756	63,10077
	9	19	12609,38	0,0124494	0,0010899	1	0,012497	5,003476	8,51458	1,673021	13	0,4529406	0,0056589	63,10136
	10	21	10078,13	0,0124142	0,0008805	1	0,0124454	4,05692	8,512286	1,673023	13	0,4407824	0,0054848	63,10082
	11	23	8015,625	0,0123814	0,0007079	1	0,0124016	3,272099	8,510347	1,673021	13	0,4336119	0,0053769	63,10341
	12	24	6328,125	0,0123561	0,0005553	1	0,0123686	2,57314	8,513783	1,673023	13	0,4272652	0,0052843	63,09777
	13	26	5015,625	0,0123422	0,0004338	1	0,0123498	2,012877	8,511738	1,673019	13	0,4206472	0,0051947	63,10355
	14	27	3984,375	0,0123224	0,0003305	1	0,0123268	1,53621	8,514749	1,673015	13	0,4166512	0,0051358	63,08758
	15	29	3170,956	0,0123143	0,0002411	1	0,0123167	1,121651	8,511629	1,673031	13	0,4130416	0,0050872	63,10672
	16	30	2527,573	0,0123099	0,00016	1	0,0123109	0,7448562	8,509514	1,673008	13	0,4105552	0,0050543	63,11043
	17	32	1976,103	0,0123088	8,091841E-005	1	0,012309	0,3766599	8,513657	1,67301	13	0,4090345	0,0050348	63,10096
	18	34	1577,524	0,0123111	1,49443E-005	1	0,0123111	0,0695508	8,515578	1,67301	13	0,4077416	0,0050197	63,11734
	19	35	1265,625	0,0123256	-4,715642E-005	1	0,0123257	-0,2192067	8,515695	1,673026	13	0,4067181	0,0050131	63,11305
	20	37	998,264	0,0123435	-0,0001075	1	0,012344	-0,4987877	8,512184	1,673015	13	0,405583	0,0050065	63,12749
	21	38	796,875	0,0123676	-0,0001665	1	0,0123687	-0,7713739	8,514025	1,67301	13	0,4043875	0,0050017	63,11948
	22	40	627,7902	0,0123981	-0,0002231	1	0,0124001	-1,030934	8,513648	1,67303	13	0,4031622	0,0049992	63,1273
	23	41	505,5147	0,0124346	-0,000282	1	0,0124378	-1,299116	8,511604	1,673012	13	0,3958827	0,004962	63,13902
	24	43	397,9953	0,0124774	-0,000343	1	0,0124821	-1,574458	8,513365	1,673023	13	0,4019131	0,0050394	63,13611
	25	44	315,5048	0,0125258	-0,0004037	1	0,0125323	-1,84583	8,515127	1,673002	13	0,3982926	0,005005	63,13167
	26	46	252,4038	0,0125795	-0,0004687	1	0,0125883	-2,133678	8,514532	1,673012	13	0,3965324	0,005	63,13789
	27	47	198,6229	0,0126455	-0,0005388	1	0,0126569	-2,439572	8,516355	1,673022	13	0,3942752	0,0049954	63,14326
	28	49	158,3615	0,0127196	-0,0006156	1	0,0127345	-2,770729	8,512706	1,673007	13	0,3920163	0,0049953	63,14586
	29	51	125,558	0,0128071	-0,0006974	1	0,012826	-3,116972	8,511398	1,673031	13	0,3892958	0,0049951	63,14747
	30	52	100,4464	0,0129018	-0,0007845	1	0,0129256	-3,479733	8,510048	1,673014	13	0,3864356	0,0049962	63,15235
	31	54	79,00281	0,0130216	-0,0008779	1	0,0130511	-3,856883	8,507179	1,673018	13	0,3826936	0,0049953	63,1452
	32	55	63,3446	0,0131473	-0,0009715	1	0,0131831	-4,225985	8,509657	1,673008	13	0,378634	0,0049921	63,14947
	33	57	50,22321	0,0133038	-0,0010725	1	0,0133469	-4,608852	8,508595	1,673011	13	0,3733716	0,0049837	63,1442
	34	58	38,42213	0,0135058	-0,0011925	1	0,0135584	-5,045898	8,506808	1,673011	13	0,365636	0,0049576	63,14875
	35	60	31,25	0,0136846	-0,0012775	1	0,0137441	-5,333381	8,509842	1,673008	13	0,3584331	0,0049264	63,15023
	36	61	24,93351	0,013899	-0,0013731	1	0,0139667	-5,642165	8,507802	1,67301	13	0,345511	0,0048257	63,15399
	37	63	19,86229	0,0141381	-0,0014247	1	0,0142097	-5,754272	8,50751	1,673	13	0,3794006	0,0053912	63,15372
	38	64	15,625	0,0144501	-0,0015053	1	0,0145283	-5,94723	8,504682	1,673009	13	0,3439121	0,0049965	63,14187
	39	66	12,40079	0,0147193	-0,0014823	1	0,0147937	-5,750457	8,506633	1,672996	13	0,3381338	0,0050023	63,14838
	40	67	9,93114	0,0150061	-0,0014681	1	0,0150777	-5,58784	8,506843	1,673005	13	0,3315934	0,0049997	63,14913
	41	69	7,944915	0,0152772	-0,00143	1	0,015344	-5,347671	8,503649	1,672988	13	0,3257481	0,0049983	63,14428
	42	71	6,317385	0,0155291	-0,0013095	1	0,0155843	-4,820069	8,504819	1,67299	13	0,3211512	0,0050049	63,15461
	43	73	5,008013	0,0156777	-0,001138	1	0,0157189	-4,151711	8,506552	1,673002	13	0,3179634	0,004998	63,14971
	44	75	3,945707	0,0159263	-0,0010197	1	0,0159589	-3,66352	8,505715	1,673004	13	0,3135649	0,0050042	63,14552
	45	79	3,158693	0,0160906	-0,0009154	1	0,0161166	-3,255941	8,504667	1,672999	13	0,3103861	0,0050024	63,14851
	46	82	2,504006	0,0161623	-0,0007912	1	0,0161816	-2,80242	8,505977	1,673	13	0,2985816	0,0048381	63,14178
	47	86	1,998082	0,0162666	-0,0006919	1	0,0162813	-2,435775	8,506244	1,672999	13	0,3126447	0,0050949	63,14834
	48	90	1,584686	0,016345	-0,0005732	1	0,0163551	-2,008468	8,506938	1,672999	13	0,3076513	0,0050346	63,14213
	49	95	1,266892	0,0163495	-0,0004788	1	0,0163565	-1,677618	8,504736	1,673003	13	0,3063574	0,0050128	63,14943
	50	101	0,999041	0,0164263	-0,0004137	1	0,0164315	-1,442533	8,500286	1,673004	13	0,3047089	0,005008	63,1457
	51	107	0,7923428	0,0164671	-0,0003441	1	0,0164707	-1,19725	8,499801	1,672997	13	0,3036946	0,0050028	63,15268
	52	115	0,6334459	0,0165484	-0,0003185	1	0,0165515	-1,102677	8,49961	1,673003	13	0,302339	0,0050046	63,14487
	53	123	0,5040323	0,0165431	-0,0002508	1	0,016545	-0,8684223	8,492649	1,673001	13	0,3022337	0,0050008	63,13279
	54	133	0,400641	0,0165205	-0,0002716	1	0,0165228	-0,9418473	8,489318	1,673001	13	0,3027464	0,0050024	63,12671
	55	147	0,316723	0,0165601	-0,0002239	1	0,0165616	-0,7747282	8,485944	1,673002	13	0,3018039	0,0049985	63,12997
	56	164	0,2520161	0,0165561	-0,0002375	1	0,0165578	-0,8218485	8,48383	1,673003	13	0,3017217	0,0049959	63,1121
	57	181	0,2003205	0,016568	-0,000202	1	0,0165692	-0,6986448	8,482251	1,673002	13	0,3019924	0,0050038	63,12441
	58	208	0,1588983	0,0165571	-0,0001971	1	0,0165583	-0,6821496	8,475	1,673005	13	0,3019227	0,0049994	63,05307
	59	240	0,1260081	0,0166464	-0,0001771	1	0,0166474	-0,6096861	8,460865	1,673006	13	0,3004282	0,0050014	63,01714
	60	278	0,1001603	0,0167003	-0,0001748	1	0,0167012	-0,5998229	8,461056	1,673003	13	0,299314	0,0049989	63,05531
