EXPLAIN
TAG	EISPOT
TITLE	LABEL	Potentiostatic EIS	Test Identifier
DATE	LABEL	14/7/2026	Date
TIME	LABEL	3:27:39	Time
NOTES	NOTES	1	Notes...
	
PSTAT	PSTAT	REF3000-46189	Potentiostat
VDC	POTEN	1,82014E+000	F	Last Measured Potential (V)
FREQINIT	QUANT	1,00000E+005	Initial Freq. (Hz)
FREQFINAL	QUANT	1,00000E-001	Final Freq. (Hz)
PTSPERDEC	QUANT	1,00000E+001	Points/decade
VAC	QUANT	5,00000E+000	AC Voltage (mV rms)
AREA	QUANT	2,50000E+001	Sample Area (cm^2)
SPEED	SELECTOR	1	Optimize for:
DRIFTCOR	SELECTOR	0	Drift Correction
THD	SELECTOR	0	THD
ZGUESS	QUANT	2,00000E-002	Estimated Z (ohms)
EOC	QUANT	0,6499035	Open Circuit (V)
SEQUENCER	TOGGLE	TRUE	Run as Sequence
PSTATMODEL	IQUANT	6	Pstat Model
PSTATSECTION	LABEL	REF30K-46189	Pstat Section
PSTATSERIALNO	LABEL	46189	Pstat Serial Number
CTRLMODE	IQUANT	1	Control Mode
ELECTROMETER	IQUANT	0	RE=0 or CS=1
IESTAB	IQUANT	0	I/E Stability
CASPEED	IQUANT	3	Control Amp Speed
CONVENTION	IQUANT	1	Current Convention
ICHRANGE	IQUANT	2	Ich Range
ICHRANGEMODE	TOGGLE	F	Ich Auto Range
ICHOFFSETENABLE	TOGGLE	T	Ich Offset Enable
ICHOFFSET	QUANT	0	Ich Offset (V)
ICHFILTER	IQUANT	3	Ich Filter
VCHRANGE	IQUANT	2	Vch Range
VCHRANGEMODE	TOGGLE	F	Vch Auto Range
VCHOFFSETENABLE	TOGGLE	T	Vch Offset Enable
VCHOFFSET	QUANT	0	Vch Offset (V)
VCHFILTER	IQUANT	3	Vch Filter
ACHRANGE	IQUANT	2	Ach Range
ACHOFFSETENABLE	TOGGLE	F	Ach Offset Enable
ACHOFFSET	QUANT	0	Ach Offset (V)
ACHFILTER	IQUANT	1	Ach Filter
IERANGELOWERLIMIT	IQUANT	13	I/E Range Lower Limit
IERANGEMODE	TOGGLE	F	I/E AutoRange
IERANGE	IQUANT	13	I/E Range
POSFEEDENABLE	TOGGLE	F	Positive Feedback IR Comp
POSFEEDRESISTANCE	QUANT	0	Positive Feedback Resistance (ohm)
ACHSELECT	IQUANT	4	Ach Select
SENSECABLEID	IQUANT	14	Sense Cable ID
PWRCABLEID	IQUANT	8	Power Cable ID
DCCALDATE	LABEL	10/1/2025	DC Calibration Date
ACCALDATE	LABEL	10/1/2025	AC Calibration Date
THERMOSELECT	IQUANT	1	Thermo Select
FRAMEWORKVERSION	LABEL	7.10.1	Framework Version
INSTRUMENTVERSION	LABEL	4.80	Instrument Version
COMMVERSION	LABEL	5.10	Communications Version
CPUPLDVERSION	LABEL	6.00	CPU PLD Version
CTRLPLDVERSION	LABEL	3.21	CTRL PLD Version
PSTATPLDVERSION	LABEL	0.00	PSTAT PLD Version
BOOSTERDCCALDATE	LABEL	10/1/2025	Booster DC Calibration Date
ZCURVE	TABLE
	Pt	Time	Freq	Zreal	Zimag	Zsig	Zmod	Zphz	Idc	Vdc	IERange	Imod	Vmod	Temp
	#	s	Hz	ohm	ohm	V	ohm	°	A	V	#	A	V	°C
	0	4	100078,1	0,0136571	0,0066639	1	0,0151962	26,00993	17,47665	1,817375	13	0,3302698	0,0049976	62,97963
	1	5	79453,13	0,0134117	0,0054758	1	0,0144865	22,20955	17,47193	1,817389	13	0,4535016	0,006548	62,95803
	2	7	63140,62	0,0132032	0,0044961	1	0,0139477	18,80522	17,47019	1,817383	13	0,4578377	0,0063683	62,96628
	3	9	50203,12	0,0130218	0,0036922	1	0,0135351	15,83028	17,47068	1,81738	13	0,4609869	0,0062256	62,95789
	4	11	39890,62	0,0128747	0,0030224	1	0,0132248	13,21133	17,4701	1,817378	13	0,4695611	0,0061992	62,95971
	5	12	31640,63	0,0127525	0,0024728	1	0,0129901	10,97387	17,46806	1,817375	13	0,4674495	0,0060646	62,95729
	6	14	25171,88	0,0126551	0,0020269	1	0,0128164	9,099662	17,46866	1,817356	13	0,4638003	0,005939	62,96149
	7	15	20015,62	0,012577	0,001648	1	0,0126845	7,465319	17,46684	1,817366	13	0,4576431	0,0058015	62,96467
	8	17	15890,62	0,0125145	0,0013391	1	0,0125859	6,107666	17,46908	1,817371	13	0,4520604	0,0056873	62,93994
	9	18	12609,38	0,012464	0,001085	1	0,0125112	4,975161	17,46597	1,817372	13	0,4422927	0,0055322	62,94775
	10	20	10078,13	0,0124271	0,0008863	1	0,0124586	4,0793	17,46694	1,817369	13	0,4326424	0,0053892	62,9485
	11	22	8015,625	0,0123925	0,0007101	1	0,0124128	3,279472	17,46769	1,817379	13	0,4260923	0,0052884	62,94259
	12	24	6328,125	0,0123716	0,0005682	1	0,0123846	2,629742	17,46498	1,81734	13	0,4213215	0,0052175	62,94622
	13	25	5015,625	0,0123477	0,0004475	1	0,0123558	2,075383	17,46643	1,817364	13	0,4164141	0,0051449	62,9462
	14	27	3984,375	0,012333	0,0003472	1	0,0123379	1,612441	17,46561	1,81737	13	0,4131435	0,0050972	62,94881
	15	29	3170,956	0,0123184	0,0002592	1	0,0123211	1,205604	17,46469	1,817377	13	0,4107819	0,0050612	62,947
	16	30	2527,573	0,0123118	0,000182	1	0,0123132	0,847032	17,46514	1,817374	13	0,4092698	0,0050393	62,95155
	17	32	1976,103	0,0123126	0,0001088	1	0,0123131	0,5063267	17,46278	1,817373	13	0,4081366	0,0050254	62,94871
	18	34	1577,524	0,0123167	4,415388E-005	1	0,0123168	0,205398	17,46054	1,817366	13	0,4070054	0,005013	62,94473
	19	35	1265,625	0,0123202	-9,639212E-006	1	0,0123202	-0,0448277	17,46036	1,817377	13	0,4063743	0,0050066	62,94406
	20	37	998,264	0,0123393	-6,505371E-005	1	0,0123395	-0,3020639	17,46486	1,817379	13	0,4060368	0,0050103	62,9492
	21	39	796,875	0,0123583	-0,0001128	1	0,0123588	-0,5231413	17,46339	1,817375	13	0,4047042	0,0050017	62,94813
	22	40	627,7902	0,0123857	-0,0001657	1	0,0123868	-0,7665938	17,46713	1,81737	13	0,4033692	0,0049965	62,96213
	23	42	505,5147	0,0124133	-0,0002138	1	0,0124152	-0,986524	17,46458	1,817363	13	0,3963981	0,0049594	62,94919
	24	43	397,9953	0,012451	-0,0002625	1	0,0124537	-1,207838	17,46363	1,817365	13	0,4027709	0,0050386	62,9585
	25	45	315,5048	0,0124929	-0,0003102	1	0,0124967	-1,422268	17,46584	1,817358	13	0,3996259	0,0050075	62,95528
	26	46	252,4038	0,0125373	-0,0003572	1	0,0125424	-1,631896	17,46861	1,817356	13	0,3977675	0,0049973	62,9669
	27	48	198,6229	0,0125946	-0,0004095	1	0,0126013	-1,862451	17,46404	1,817363	13	0,3960023	0,0049952	62,95939
	28	49	158,3615	0,0126557	-0,0004602	1	0,0126641	-2,082736	17,45982	1,817365	13	0,3942913	0,0049965	62,95908
	29	51	125,558	0,0127268	-0,0005168	1	0,0127373	-2,325412	17,46253	1,817377	13	0,3919479	0,0049943	62,97135
	30	52	100,4464	0,0128059	-0,0005696	1	0,0128186	-2,546599	17,46349	1,817369	13	0,3896277	0,0049957	62,97278
	31	54	79,00281	0,0129054	-0,000626	1	0,0129205	-2,777244	17,4634	1,817359	13	0,3865349	0,004995	62,96664
	32	55	63,3446	0,013009	-0,0006761	1	0,0130265	-2,975162	17,46397	1,817366	13	0,3832142	0,0049924	62,96215
	33	57	50,22321	0,0131314	-0,0007243	1	0,0131513	-3,15697	17,46214	1,817361	13	0,3789674	0,0049842	62,98423
	34	59	38,42213	0,0132872	-0,0007701	1	0,0133095	-3,316859	17,46426	1,817379	13	0,3724511	0,0049573	62,98439
	35	60	31,25	0,013418	-0,0007851	1	0,013441	-3,348724	17,46155	1,817358	13	0,3660779	0,0049206	62,98132
	36	62	24,93351	0,013571	-0,0007887	1	0,0135939	-3,326283	17,46238	1,817353	13	0,3545812	0,0048202	62,97482
	37	63	19,86229	0,0137008	-0,0007755	1	0,0137227	-3,239631	17,45638	1,817378	13	0,3938933	0,0054054	62,97026
	38	65	15,625	0,0139321	-0,0007489	1	0,0139523	-3,076952	17,45575	1,817365	13	0,3580935	0,0049962	62,97739
	39	66	12,40079	0,0139847	-0,000698	1	0,0140021	-2,857481	17,45261	1,817372	13	0,3572598	0,0050024	62,97023
	40	68	9,93114	0,014084	-0,0006189	1	0,0140976	-2,516325	17,45392	1,817378	13	0,3547027	0,0050005	62,9651
	41	70	7,944915	0,0141739	-0,0005549	1	0,0141848	-2,241883	17,45009	1,817365	13	0,3524218	0,004999	62,95387
	42	71	6,317385	0,014245	-0,0005057	1	0,014254	-2,033226	17,44711	1,817366	13	0,3508411	0,0050009	62,95944
	43	74	5,008013	0,0142559	-0,0004388	1	0,0142627	-1,762864	17,44672	1,817358	13	0,3502958	0,0049962	62,95075
	44	76	3,945707	0,0143586	-0,0003773	1	0,0143635	-1,505381	17,44745	1,817356	13	0,3483368	0,0050033	62,96041
	45	79	3,158693	0,0143974	-0,0003393	1	0,0144014	-1,349904	17,44893	1,817361	13	0,3472882	0,0050014	62,9577
	46	82	2,504006	0,0144539	-0,0003298	1	0,0144577	-1,307008	17,44981	1,817371	13	0,3348502	0,0048478	62,94696
	47	85	1,998082	0,0144815	-0,000325	1	0,0144852	-1,285474	17,44794	1,817365	13	0,351098	0,0050903	62,9435
	48	90	1,584686	0,0145075	-0,0002996	1	0,0145106	-1,183017	17,44364	1,817368	13	0,3469156	0,0050369	62,93104
	49	96	1,266892	0,0145264	-0,0002603	1	0,0145287	-1,026482	17,44022	1,817369	13	0,3449192	0,0050131	62,92405
	50	102	0,999041	0,0145669	-0,0002421	1	0,0145689	-0,952277	17,43819	1,817368	13	0,3437987	0,0050099	62,91755
	51	109	0,7923428	0,0146583	-0,0002595	1	0,0146606	-1,014371	17,43313	1,817364	13	0,3411781	0,0050026	62,91165
	52	116	0,6334459	0,0146349	-0,0001943	1	0,0146362	-0,7604669	17,43563	1,817372	13	0,3415028	0,0049988	62,90812
	53	124	0,5040323	0,014653	-0,0001961	1	0,0146543	-0,7666345	17,43462	1,817368	13	0,3412025	0,0050004	62,89821
	54	135	0,400641	0,014661	-0,0002178	1	0,0146626	-0,8512024	17,42467	1,817367	13	0,3411735	0,0050027	62,85244
	55	149	0,316723	0,0146836	-0,0002093	1	0,0146851	-0,8167228	17,40887	1,817368	13	0,3404326	0,0049994	62,81333
	56	166	0,2520161	0,0147529	-0,0001453	1	0,0147537	-0,5642284	17,41006	1,817365	13	0,3389116	0,0050003	62,78688
	57	184	0,2003205	0,0147509	-0,0002045	1	0,0147523	-0,7944658	17,4004	1,817363	13	0,338957	0,0050005	62,72294
	58	210	0,1588983	0,0147928	-0,000174	1	0,0147938	-0,673902	17,37668	1,817362	13	0,3380407	0,0050009	62,66021
	59	242	0,1260081	0,0148448	-0,0001436	1	0,0148455	-0,5542586	17,38	1,817361	13	0,3367231	0,0049989	62,64396
	60	273	0,1001603	0,0148814	-0,0001382	1	0,0148821	-0,5322659	17,37166	1,81736	13	0,3359956	0,0050003	62,63279
