EXPLAIN
TAG	EISPOT
TITLE	LABEL	Potentiostatic EIS	Test Identifier
DATE	LABEL	21/7/2026	Date
TIME	LABEL	19:28:41	Time
NOTES	NOTES	1	Notes...
	
PSTAT	PSTAT	REF3000-46189	Potentiostat
VDC	POTEN	1,52104E+000	F	Last Measured Potential (V)
FREQINIT	QUANT	1,00000E+005	Initial Freq. (Hz)
FREQFINAL	QUANT	1,00000E-001	Final Freq. (Hz)
PTSPERDEC	QUANT	1,00000E+001	Points/decade
VAC	QUANT	5,00000E+000	AC Voltage (mV rms)
AREA	QUANT	2,50000E+001	Sample Area (cm^2)
SPEED	SELECTOR	1	Optimize for:
DRIFTCOR	SELECTOR	0	Drift Correction
THD	SELECTOR	0	THD
ZGUESS	QUANT	2,00000E-002	Estimated Z (ohms)
EOC	QUANT	0,6117225	Open Circuit (V)
SEQUENCER	TOGGLE	TRUE	Run as Sequence
PSTATMODEL	IQUANT	6	Pstat Model
PSTATSECTION	LABEL	REF30K-46189	Pstat Section
PSTATSERIALNO	LABEL	46189	Pstat Serial Number
CTRLMODE	IQUANT	1	Control Mode
ELECTROMETER	IQUANT	0	RE=0 or CS=1
IESTAB	IQUANT	0	I/E Stability
CASPEED	IQUANT	3	Control Amp Speed
CONVENTION	IQUANT	1	Current Convention
ICHRANGE	IQUANT	2	Ich Range
ICHRANGEMODE	TOGGLE	F	Ich Auto Range
ICHOFFSETENABLE	TOGGLE	T	Ich Offset Enable
ICHOFFSET	QUANT	0	Ich Offset (V)
ICHFILTER	IQUANT	3	Ich Filter
VCHRANGE	IQUANT	2	Vch Range
VCHRANGEMODE	TOGGLE	F	Vch Auto Range
VCHOFFSETENABLE	TOGGLE	T	Vch Offset Enable
VCHOFFSET	QUANT	0	Vch Offset (V)
VCHFILTER	IQUANT	3	Vch Filter
ACHRANGE	IQUANT	2	Ach Range
ACHOFFSETENABLE	TOGGLE	F	Ach Offset Enable
ACHOFFSET	QUANT	0	Ach Offset (V)
ACHFILTER	IQUANT	1	Ach Filter
IERANGELOWERLIMIT	IQUANT	13	I/E Range Lower Limit
IERANGEMODE	TOGGLE	F	I/E AutoRange
IERANGE	IQUANT	13	I/E Range
POSFEEDENABLE	TOGGLE	F	Positive Feedback IR Comp
POSFEEDRESISTANCE	QUANT	0	Positive Feedback Resistance (ohm)
ACHSELECT	IQUANT	4	Ach Select
SENSECABLEID	IQUANT	14	Sense Cable ID
PWRCABLEID	IQUANT	8	Power Cable ID
DCCALDATE	LABEL	10/1/2025	DC Calibration Date
ACCALDATE	LABEL	10/1/2025	AC Calibration Date
THERMOSELECT	IQUANT	1	Thermo Select
FRAMEWORKVERSION	LABEL	7.10.1	Framework Version
INSTRUMENTVERSION	LABEL	4.80	Instrument Version
COMMVERSION	LABEL	5.10	Communications Version
CPUPLDVERSION	LABEL	6.00	CPU PLD Version
CTRLPLDVERSION	LABEL	3.21	CTRL PLD Version
PSTATPLDVERSION	LABEL	0.00	PSTAT PLD Version
BOOSTERDCCALDATE	LABEL	10/1/2025	Booster DC Calibration Date
ZCURVE	TABLE
	Pt	Time	Freq	Zreal	Zimag	Zsig	Zmod	Zphz	Idc	Vdc	IERange	Imod	Vmod	Temp
	#	s	Hz	ohm	ohm	V	ohm	°	A	V	#	A	V	°C
	0	4	100078,1	0,0136551	0,0067518	1	0,0152331	26,31031	1,304638	1,51916	13	0,3295122	0,0049982	63,41792
	1	5	79453,13	0,0134198	0,0055389	1	0,0145179	22,42797	1,303845	1,519138	13	0,4512167	0,0065292	63,40871
	2	7	63140,62	0,013224	0,0045466	1	0,0139837	18,9736	1,304366	1,519153	13	0,4603795	0,0064202	63,40609
	3	9	50203,12	0,0130446	0,003732	1	0,013568	15,96538	1,304757	1,519156	13	0,4627746	0,0062649	63,40293
	4	11	39890,62	0,0128993	0,0030558	1	0,0132564	13,32764	1,303783	1,519151	13	0,4650053	0,0061537	63,40339
	5	13	31640,63	0,0127794	0,0024946	1	0,0130206	11,04561	1,302564	1,519155	13	0,4633559	0,0060256	63,40702
	6	15	25171,88	0,0126838	0,0020361	1	0,0128462	9,119559	1,302235	1,519156	13	0,4573568	0,0058701	63,40515
	7	17	20015,62	0,0126068	0,0016564	1	0,0127151	7,485335	1,302552	1,519149	13	0,45041	0,0057236	63,41204
	8	19	15890,62	0,0125446	0,0013396	1	0,012616	6,095212	1,302132	1,519153	13	0,4436232	0,0055945	63,39954
	9	21	12609,38	0,0124957	0,0010757	1	0,0125419	4,920343	1,302075	1,519145	13	0,4337757	0,005439	63,40612
	10	22	10078,13	0,0124532	0,0008647	1	0,0124832	3,972209	1,303289	1,519154	13	0,4253213	0,0053085	63,40286
	11	24	8015,625	0,0124312	0,0006907	1	0,0124503	3,18033	1,302979	1,519154	13	0,4196942	0,0052248	63,39884
	12	25	6328,125	0,0124116	0,0005381	1	0,0124232	2,482402	1,302081	1,519153	13	0,4154421	0,0051608	63,40307
	13	27	5015,625	0,0123948	0,0004085	1	0,0124016	1,887578	1,303267	1,519154	13	0,4114791	0,0051028	63,40481
	14	28	3984,375	0,0123813	0,0003009	1	0,012385	1,392356	1,302125	1,519148	13	0,408983	0,0050651	63,40582
	15	30	3170,956	0,012372	0,0002048	1	0,0123737	0,948422	1,302847	1,519139	13	0,407611	0,0050436	63,41761
	16	32	2527,573	0,012373	0,0001125	1	0,0123735	0,521132	1,30365	1,519144	13	0,4062273	0,0050264	63,41953
	17	33	1976,103	0,0123739	2,979541E-005	1	0,0123739	0,1379642	1,305161	1,519157	13	0,4054777	0,0050173	63,43531
	18	35	1577,524	0,0123903	-4,312118E-005	1	0,0123903	-0,1994027	1,305011	1,519154	13	0,4045056	0,0050119	63,42083
	19	36	1265,625	0,0124028	-0,000116	1	0,0124033	-0,535664	1,305002	1,519144	13	0,4034562	0,0050042	63,43895
	20	38	998,264	0,0124278	-0,0001908	1	0,0124293	-0,8795052	1,306065	1,519143	13	0,4027736	0,0050062	63,42999
	21	40	796,875	0,0124601	-0,000265	1	0,0124629	-1,218403	1,305285	1,519149	13	0,4012776	0,0050011	63,44085
	22	41	627,7902	0,0124929	-0,0003457	1	0,0124977	-1,58516	1,305564	1,519138	13	0,399986	0,0049989	63,45025
	23	43	505,5147	0,0125381	-0,0004203	1	0,0125452	-1,919783	1,305051	1,51914	13	0,3926267	0,0049637	63,44982
	24	44	397,9953	0,0125894	-0,0005077	1	0,0125996	-2,309196	1,307342	1,519152	13	0,3985837	0,0050446	63,4578
	25	46	315,5048	0,012648	-0,0006022	1	0,0126623	-2,725772	1,30642	1,519131	13	0,3944416	0,005008	63,45031
	26	47	252,4038	0,012715	-0,000704	1	0,0127344	-3,169175	1,30575	1,519142	13	0,391771	0,0049973	63,455
	27	49	198,6229	0,0127974	-0,0008256	1	0,012824	-3,691378	1,307377	1,519161	13	0,3890957	0,0049948	63,46539
	28	50	158,3615	0,0128879	-0,0009593	1	0,0129236	-4,256756	1,30889	1,519155	13	0,3863564	0,0049963	63,47516
	29	52	125,558	0,0129977	-0,0011146	1	0,0130454	-4,901372	1,308978	1,519148	13	0,3827552	0,0049952	63,46844
	30	53	100,4464	0,0131197	-0,001285	1	0,0131825	-5,593909	1,307333	1,519144	13	0,3788446	0,0049954	63,47151
	31	55	79,00281	0,0132811	-0,0014907	1	0,0133645	-6,40401	1,309026	1,519151	13	0,3735599	0,0049932	63,47391
	32	57	63,3446	0,0134569	-0,0017029	1	0,0135642	-7,212335	1,30899	1,519136	13	0,3680986	0,0049935	63,47628
	33	58	50,22321	0,0136737	-0,0019514	1	0,0138123	-8,12192	1,310904	1,519156	13	0,3608284	0,0049842	63,48708
	34	60	38,42213	0,0139853	-0,0022743	1	0,014169	-9,236507	1,308981	1,519133	13	0,3499746	0,004959	63,48211
	35	61	31,25	0,0142744	-0,0025289	1	0,0144967	-10,04655	1,30907	1,519143	13	0,3397614	0,0049255	63,48019
	36	63	24,93351	0,0146234	-0,0028213	1	0,014893	-10,91987	1,310066	1,519144	13	0,3238126	0,0048226	63,47432
	37	65	19,86229	0,0150575	-0,0031343	1	0,0153802	-11,75866	1,307428	1,519155	13	0,3506686	0,0053934	63,48207
	38	66	15,625	0,0155554	-0,003476	1	0,0159391	-12,59626	1,304496	1,519145	13	0,3137219	0,0050005	63,49834
	39	68	12,40079	0,0160729	-0,0038086	1	0,016518	-13,3307	1,304055	1,519128	13	0,3029326	0,0050039	63,49478
	40	69	9,93114	0,0164853	-0,0041213	1	0,0169926	-14,03603	1,307407	1,519148	13	0,293905	0,0049942	63,49994
	41	71	7,944915	0,0169839	-0,0044941	1	0,0175684	-14,82121	1,309237	1,51914	13	0,284507	0,0049983	63,49879
	42	73	6,317385	0,0175502	-0,0049438	1	0,0182332	-15,73238	1,308719	1,519135	13	0,2746236	0,0050073	63,49377
	43	75	5,008013	0,0182302	-0,0055075	1	0,019044	-16,81013	1,308125	1,519132	13	0,2627023	0,0050029	63,4925
	44	77	3,945707	0,0189899	-0,0061689	1	0,0199667	-17,99653	1,309601	1,519136	13	0,2501405	0,0049945	63,49508
	45	80	3,158693	0,0199115	-0,0068471	1	0,0210559	-18,9768	1,309351	1,519134	13	0,237606	0,005003	63,5057
	46	84	2,504006	0,0211022	-0,0075523	1	0,0224129	-19,69192	1,310731	1,519137	13	0,2158894	0,0048453	63,51389
	47	89	1,998082	0,0225079	-0,0081595	1	0,0239412	-19,92643	1,310482	1,519139	13	0,2124069	0,0050899	63,52439
	48	93	1,584686	0,0242216	-0,0085883	1	0,0256991	-19,52307	1,312722	1,519144	13	0,1959879	0,0050396	63,53176
	49	99	1,266892	0,0259973	-0,0086885	1	0,0274108	-18,48013	1,312568	1,519138	13	0,1828682	0,0050144	63,5513
	50	104	0,999041	0,0278571	-0,0083921	1	0,0290937	-16,76519	1,314091	1,519139	13	0,1720354	0,0050063	63,55898
	51	111	0,7923428	0,0296344	-0,0077772	1	0,0306379	-14,70504	1,313845	1,519144	13	0,1633316	0,0050049	63,56333
	52	118	0,6334459	0,0309601	-0,0069907	1	0,0317396	-12,72388	1,313248	1,519141	13	0,1575942	0,0050024	63,58878
	53	125	0,5040323	0,0320601	-0,0060295	1	0,0326221	-10,65108	1,315723	1,51914	13	0,1532287	0,0049989	63,60049
	54	137	0,400641	0,0328099	-0,0050234	1	0,0331922	-8,704705	1,314073	1,519139	13	0,1506598	0,0050009	63,62674
	55	148	0,316723	0,0334028	-0,0040916	1	0,0336525	-6,983486	1,313981	1,519141	13	0,1485189	0,0049981	63,61348
	56	163	0,2520161	0,0336544	-0,0034532	1	0,0338311	-5,858401	1,31117	1,519139	13	0,1478747	0,0050028	63,57235
	57	180	0,2003205	0,034062	-0,0027937	1	0,0341764	-4,688806	1,309076	1,519138	13	0,1463172	0,0050006	63,51526
	58	202	0,1588983	0,0343929	-0,0022495	1	0,0344663	-3,742192	1,30561	1,519136	13	0,1450723	0,0050001	63,46288
	59	227	0,1260081	0,0344619	-0,0018722	1	0,0345127	-3,109601	1,300692	1,51914	13	0,1449079	0,0050012	63,3905
	60	257	0,1001603	0,0346859	-0,0015848	1	0,0347221	-2,616003	1,300014	1,519137	13	0,1440139	0,0050005	63,36125
