EXPLAIN
TAG	CHRONOA
TITLE	LABEL	Chronoamperometry Scan	Test Identifier
DATE	LABEL	26/8/2026	Date
TIME	LABEL	17:38:48	Time
NOTES	NOTES	1	Notes...
	
PSTAT	PSTAT	REF3000-46189	Potentiostat
VPRESTEP	POTEN	1,80509E+000	F	Last Measured Potential (V)
TPRESTEP	QUANT	0,00000E+000	Pre-step Delay Time (s)
VSTEP1	POTEN	1,80509E+000	F	Last Measured Potential (V)
TSTEP1	QUANT	6,00000E+001	Step 1 Time (s)
VSTEP2	POTEN	1,80509E+000	F	Last Measured Potential (V)
TSTEP2	QUANT	0,00000E+000	Step 2 Time (s)
SAMPLETIME	QUANT	5,00001E-001	Sample Period (s)
DECIMATE	TOGGLE	F	Decimate
ILIMIT	QUANT	1,20000E+003	Limit I (mA/cm^2)
IMODE	SELECTOR	0	I/E Range Mode
IRANGE	QUANT	3,00000E+004	Max Current (mA)
EQDELAY	QUANT	0,00000E+000	Equil. Time (s)
SAMPLINGMODE	SELECTOR	1	Sampling Mode
AREA	QUANT	2,50000E+001	Sample Area (cm^2)
IRCOMP	SELECTOR	0	IRComp
PFCOR	QUANT	5,00000E+001	PF Corr. (ohm)
ELECTRODETYPE	SELECTOR	0	Electrode Type
STRIPPING	TOGGLE	F	Used for Stripping
SEQUENCER	TOGGLE	TRUE	Run as Sequence
PSTATMODEL	IQUANT	6	Pstat Model
PSTATSECTION	LABEL	REF30K-46189	Pstat Section
PSTATSERIALNO	LABEL	46189	Pstat Serial Number
CTRLMODE	IQUANT	1	Control Mode
ELECTROMETER	IQUANT	0	RE=0 or CS=1
IESTAB	IQUANT	0	I/E Stability
CASPEED	IQUANT	4	Control Amp Speed
CONVENTION	IQUANT	1	Current Convention
ICHRANGE	IQUANT	2	Ich Range
ICHRANGEMODE	TOGGLE	T	Ich Auto Range
ICHOFFSETENABLE	TOGGLE	F	Ich Offset Enable
ICHOFFSET	QUANT	0	Ich Offset (V)
ICHFILTER	IQUANT	3	Ich Filter
VCHRANGE	IQUANT	2	Vch Range
VCHRANGEMODE	TOGGLE	F	Vch Auto Range
VCHOFFSETENABLE	TOGGLE	F	Vch Offset Enable
VCHOFFSET	QUANT	0	Vch Offset (V)
VCHFILTER	IQUANT	3	Vch Filter
ACHRANGE	IQUANT	2	Ach Range
ACHOFFSETENABLE	TOGGLE	F	Ach Offset Enable
ACHOFFSET	QUANT	0	Ach Offset (V)
ACHFILTER	IQUANT	1	Ach Filter
IERANGELOWERLIMIT	IQUANT	13	I/E Range Lower Limit
IERANGEMODE	TOGGLE	F	I/E AutoRange
IERANGE	IQUANT	13	I/E Range
POSFEEDENABLE	TOGGLE	F	Positive Feedback IR Comp
POSFEEDRESISTANCE	QUANT	0	Positive Feedback Resistance (ohm)
ACHSELECT	IQUANT	0	Ach Select
SENSECABLEID	IQUANT	14	Sense Cable ID
PWRCABLEID	IQUANT	8	Power Cable ID
DCCALDATE	LABEL	10/1/2025	DC Calibration Date
ACCALDATE	LABEL	10/1/2025	AC Calibration Date
THERMOSELECT	IQUANT	1	Thermo Select
FRAMEWORKVERSION	LABEL	7.10.1	Framework Version
INSTRUMENTVERSION	LABEL	4.80	Instrument Version
COMMVERSION	LABEL	5.10	Communications Version
CPUPLDVERSION	LABEL	6.00	CPU PLD Version
CTRLPLDVERSION	LABEL	3.21	CTRL PLD Version
PSTATPLDVERSION	LABEL	0.00	PSTAT PLD Version
BOOSTERDCCALDATE	LABEL	10/1/2025	Booster DC Calibration Date
CURVE	TABLE	121
	Pt	T	Vf	Im	Vu	Sig	Ach	IERange	Over	Temp
	#	s	V vs. Ref.	A	V	V	V	#	bits	deg C
	0	0	1,80083E+000	1,77534E+001	0,00000E+000	1,80500E+000	-3,96855E-004	13	...........	63,51
	1	0,5	1,80087E+000	1,77310E+001	0,00000E+000	1,80500E+000	-3,87188E-004	13	...........	63,50
	2	1	1,80088E+000	1,77156E+001	0,00000E+000	1,80500E+000	-3,91322E-004	13	...........	63,51
	3	1,5	1,80087E+000	1,77090E+001	0,00000E+000	1,80500E+000	-3,90655E-004	13	...........	63,51
	4	2	1,80091E+000	1,77048E+001	0,00000E+000	1,80500E+000	-3,88388E-004	13	...........	63,51
	5	2,5	1,80085E+000	1,77012E+001	0,00000E+000	1,80500E+000	-3,92255E-004	13	...........	63,51
	6	3	1,80087E+000	1,76985E+001	0,00000E+000	1,80500E+000	-3,86988E-004	13	...........	63,51
	7	3,5	1,80088E+000	1,76948E+001	0,00000E+000	1,80500E+000	-3,88255E-004	13	...........	63,51
	8	4	1,80088E+000	1,76949E+001	0,00000E+000	1,80500E+000	-3,91922E-004	13	...........	63,50
	9	4,5	1,80089E+000	1,76906E+001	0,00000E+000	1,80500E+000	-3,91722E-004	13	...........	63,51
	10	5	1,80087E+000	1,76896E+001	0,00000E+000	1,80500E+000	-3,90555E-004	13	...........	63,51
	11	5,5	1,80085E+000	1,76880E+001	0,00000E+000	1,80500E+000	-3,91422E-004	13	...........	63,50
	12	6	1,80089E+000	1,76923E+001	0,00000E+000	1,80500E+000	-3,90788E-004	13	...........	63,50
	13	6,5	1,80085E+000	1,76868E+001	0,00000E+000	1,80500E+000	-3,93655E-004	13	...........	63,50
	14	7	1,80089E+000	1,76917E+001	0,00000E+000	1,80500E+000	-3,91988E-004	13	...........	63,50
	15	7,5	1,80088E+000	1,76880E+001	0,00000E+000	1,80500E+000	-3,90855E-004	13	...........	63,50
	16	8	1,80089E+000	1,76908E+001	0,00000E+000	1,80500E+000	-4,00455E-004	13	...........	63,51
	17	8,5	1,80089E+000	1,76865E+001	0,00000E+000	1,80500E+000	-3,93222E-004	13	...........	63,51
	18	9	1,80087E+000	1,76903E+001	0,00000E+000	1,80500E+000	-3,96588E-004	13	...........	63,51
	19	9,5	1,80083E+000	1,76839E+001	0,00000E+000	1,80500E+000	-3,93388E-004	13	...........	63,51
	20	10	1,80089E+000	1,76912E+001	0,00000E+000	1,80500E+000	-3,99388E-004	13	...........	63,51
	21	10,5	1,80090E+000	1,76883E+001	0,00000E+000	1,80500E+000	-3,96455E-004	13	...........	63,52
	22	11	1,80087E+000	1,76874E+001	0,00000E+000	1,80500E+000	-3,96522E-004	13	...........	63,52
	23	11,5	1,80084E+000	1,76855E+001	0,00000E+000	1,80500E+000	-3,92622E-004	13	...........	63,51
	24	12	1,80083E+000	1,76842E+001	0,00000E+000	1,80500E+000	-3,93455E-004	13	...........	63,52
	25	12,5	1,80086E+000	1,76830E+001	0,00000E+000	1,80500E+000	-3,95855E-004	13	...........	63,51
	26	13	1,80087E+000	1,76876E+001	0,00000E+000	1,80500E+000	-3,90988E-004	13	...........	63,51
	27	13,5	1,80090E+000	1,76890E+001	0,00000E+000	1,80500E+000	-3,92355E-004	13	...........	63,51
	28	14	1,80087E+000	1,76843E+001	0,00000E+000	1,80500E+000	-3,90588E-004	13	...........	63,52
	29	14,5	1,80085E+000	1,76822E+001	0,00000E+000	1,80500E+000	-3,91288E-004	13	...........	63,51
	30	15	1,80089E+000	1,76848E+001	0,00000E+000	1,80500E+000	-3,94622E-004	13	...........	63,51
	31	15,5	1,80086E+000	1,76848E+001	0,00000E+000	1,80500E+000	-3,91755E-004	13	...........	63,51
	32	16	1,80087E+000	1,76887E+001	0,00000E+000	1,80500E+000	-3,90088E-004	13	...........	63,51
	33	16,5	1,80091E+000	1,76885E+001	0,00000E+000	1,80500E+000	-3,93788E-004	13	...........	63,51
	34	17	1,80086E+000	1,76825E+001	0,00000E+000	1,80500E+000	-3,93555E-004	13	...........	63,51
	35	17,5	1,80087E+000	1,76827E+001	0,00000E+000	1,80500E+000	-3,92388E-004	13	...........	63,51
	36	18	1,80086E+000	1,76835E+001	0,00000E+000	1,80500E+000	-3,86922E-004	13	...........	63,51
	37	18,5	1,80087E+000	1,76859E+001	0,00000E+000	1,80500E+000	-3,90222E-004	13	...........	63,51
	38	19	1,80086E+000	1,76848E+001	0,00000E+000	1,80500E+000	-3,92388E-004	13	...........	63,52
	39	19,5	1,80089E+000	1,76885E+001	0,00000E+000	1,80500E+000	-3,87188E-004	13	...........	63,51
	40	20	1,80086E+000	1,76844E+001	0,00000E+000	1,80500E+000	-3,90022E-004	13	...........	63,51
	41	20,5	1,80085E+000	1,76865E+001	0,00000E+000	1,80500E+000	-3,92988E-004	13	...........	63,50
	42	21	1,80089E+000	1,76888E+001	0,00000E+000	1,80500E+000	-3,85788E-004	13	...........	63,51
	43	21,5	1,80083E+000	1,76861E+001	0,00000E+000	1,80500E+000	-3,90055E-004	13	...........	63,52
	44	22	1,80086E+000	1,76866E+001	0,00000E+000	1,80500E+000	-3,91655E-004	13	...........	63,51
	45	22,5	1,80083E+000	1,76840E+001	0,00000E+000	1,80500E+000	-3,84788E-004	13	...........	63,52
	46	23	1,80082E+000	1,76840E+001	0,00000E+000	1,80500E+000	-3,85655E-004	13	...........	63,51
	47	23,5	1,80086E+000	1,76851E+001	0,00000E+000	1,80500E+000	-3,86988E-004	13	...........	63,51
	48	24	1,80087E+000	1,76846E+001	0,00000E+000	1,80500E+000	-3,82988E-004	13	...........	63,51
	49	24,5	1,80085E+000	1,76844E+001	0,00000E+000	1,80500E+000	-3,92322E-004	13	...........	63,51
	50	25	1,80087E+000	1,76808E+001	0,00000E+000	1,80500E+000	-3,84888E-004	13	...........	63,51
	51	25,5	1,80085E+000	1,76831E+001	0,00000E+000	1,80500E+000	-3,85522E-004	13	...........	63,51
	52	26	1,80086E+000	1,76830E+001	0,00000E+000	1,80500E+000	-3,81622E-004	13	...........	63,51
	53	26,5	1,80086E+000	1,76805E+001	0,00000E+000	1,80500E+000	-3,86388E-004	13	...........	63,51
	54	27	1,80087E+000	1,76787E+001	0,00000E+000	1,80500E+000	-3,87922E-004	13	...........	63,51
	55	27,5	1,80087E+000	1,76813E+001	0,00000E+000	1,80500E+000	-3,87288E-004	13	...........	63,51
	56	28	1,80085E+000	1,76812E+001	0,00000E+000	1,80500E+000	-3,86588E-004	13	...........	63,51
	57	28,5	1,80087E+000	1,76827E+001	0,00000E+000	1,80500E+000	-3,90488E-004	13	...........	63,51
	58	29	1,80086E+000	1,76778E+001	0,00000E+000	1,80500E+000	-3,93122E-004	13	...........	63,51
	59	29,5	1,80087E+000	1,76802E+001	0,00000E+000	1,80500E+000	-3,91988E-004	13	...........	63,51
	60	30	1,80087E+000	1,76801E+001	0,00000E+000	1,80500E+000	-3,95455E-004	13	...........	63,51
	61	30,5	1,80085E+000	1,76795E+001	0,00000E+000	1,80500E+000	-3,90288E-004	13	...........	63,51
	62	31	1,80088E+000	1,76788E+001	0,00000E+000	1,80500E+000	-3,86988E-004	13	...........	63,51
	63	31,5	1,80088E+000	1,76784E+001	0,00000E+000	1,80500E+000	-3,88188E-004	13	...........	63,51
	64	32	1,80089E+000	1,76790E+001	0,00000E+000	1,80500E+000	-3,88188E-004	13	...........	63,51
	65	32,5	1,80089E+000	1,76781E+001	0,00000E+000	1,80500E+000	-3,90855E-004	13	...........	63,51
	66	33	1,80087E+000	1,76804E+001	0,00000E+000	1,80500E+000	-3,87588E-004	13	...........	63,50
	67	33,5	1,80089E+000	1,76771E+001	0,00000E+000	1,80500E+000	-3,90188E-004	13	...........	63,50
	68	34	1,80087E+000	1,76788E+001	0,00000E+000	1,80500E+000	-3,88822E-004	13	...........	63,51
	69	34,5	1,80088E+000	1,76740E+001	0,00000E+000	1,80500E+000	-3,87922E-004	13	...........	63,50
	70	35	1,80087E+000	1,76759E+001	0,00000E+000	1,80500E+000	-3,91355E-004	13	...........	63,50
	71	35,5	1,80087E+000	1,76733E+001	0,00000E+000	1,80500E+000	-3,90488E-004	13	...........	63,50
	72	36	1,80087E+000	1,76759E+001	0,00000E+000	1,80500E+000	-3,92422E-004	13	...........	63,49
	73	36,5	1,80090E+000	1,76755E+001	0,00000E+000	1,80500E+000	-3,94955E-004	13	...........	63,50
	74	37	1,80089E+000	1,76733E+001	0,00000E+000	1,80500E+000	-3,92155E-004	13	...........	63,49
	75	37,5	1,80084E+000	1,76678E+001	0,00000E+000	1,80500E+000	-3,91388E-004	13	...........	63,49
	76	38	1,80089E+000	1,76746E+001	0,00000E+000	1,80500E+000	-3,94988E-004	13	...........	63,50
	77	38,5	1,80087E+000	1,76720E+001	0,00000E+000	1,80500E+000	-3,95722E-004	13	...........	63,49
	78	39	1,80086E+000	1,76720E+001	0,00000E+000	1,80500E+000	-3,93055E-004	13	...........	63,49
	79	39,5	1,80087E+000	1,76692E+001	0,00000E+000	1,80500E+000	-3,89388E-004	13	...........	63,49
	80	40	1,80089E+000	1,76720E+001	0,00000E+000	1,80500E+000	-3,94955E-004	13	...........	63,49
	81	40,5	1,80086E+000	1,76702E+001	0,00000E+000	1,80500E+000	-3,86488E-004	13	...........	63,49
	82	41	1,80086E+000	1,76704E+001	0,00000E+000	1,80500E+000	-3,91522E-004	13	...........	63,49
	83	41,5	1,80086E+000	1,76684E+001	0,00000E+000	1,80500E+000	-3,88722E-004	13	...........	63,48
	84	42	1,80083E+000	1,76675E+001	0,00000E+000	1,80500E+000	-3,86388E-004	13	...........	63,48
	85	42,5	1,80085E+000	1,76682E+001	0,00000E+000	1,80500E+000	-3,91088E-004	13	...........	63,49
	86	43	1,80086E+000	1,76675E+001	0,00000E+000	1,80500E+000	-3,94622E-004	13	...........	63,49
	87	43,5	1,80084E+000	1,76664E+001	0,00000E+000	1,80500E+000	-3,91455E-004	13	...........	63,48
	88	44	1,80085E+000	1,76659E+001	0,00000E+000	1,80500E+000	-3,96888E-004	13	...........	63,48
	89	44,5	1,80087E+000	1,76699E+001	0,00000E+000	1,80500E+000	-3,87022E-004	13	...........	63,48
	90	45	1,80085E+000	1,76648E+001	0,00000E+000	1,80500E+000	-3,88088E-004	13	...........	63,48
	91	45,5	1,80085E+000	1,76659E+001	0,00000E+000	1,80500E+000	-3,93522E-004	13	...........	63,48
	92	46	1,80086E+000	1,76667E+001	0,00000E+000	1,80500E+000	-3,83755E-004	13	...........	63,48
	93	46,5	1,80083E+000	1,76671E+001	0,00000E+000	1,80500E+000	-3,88222E-004	13	...........	63,48
	94	47	1,80085E+000	1,76666E+001	0,00000E+000	1,80500E+000	-3,85888E-004	13	...........	63,48
	95	47,5	1,80087E+000	1,76705E+001	0,00000E+000	1,80500E+000	-3,91188E-004	13	...........	63,48
	96	48	1,80087E+000	1,76644E+001	0,00000E+000	1,80500E+000	-3,88622E-004	13	...........	63,48
	97	48,5	1,80086E+000	1,76643E+001	0,00000E+000	1,80500E+000	-3,90555E-004	13	...........	63,48
	98	49	1,80085E+000	1,76610E+001	0,00000E+000	1,80500E+000	-3,90355E-004	13	...........	63,48
	99	49,5	1,80084E+000	1,76668E+001	0,00000E+000	1,80500E+000	-3,91288E-004	13	...........	63,48
	100	50	1,80085E+000	1,76617E+001	0,00000E+000	1,80500E+000	-3,93522E-004	13	...........	63,48
	101	50,5	1,80085E+000	1,76634E+001	0,00000E+000	1,80500E+000	-3,89688E-004	13	...........	63,49
	102	51	1,80088E+000	1,76623E+001	0,00000E+000	1,80500E+000	-3,98522E-004	13	...........	63,48
	103	51,5	1,80084E+000	1,76672E+001	0,00000E+000	1,80500E+000	-3,95655E-004	13	...........	63,49
	104	52	1,80087E+000	1,76617E+001	0,00000E+000	1,80500E+000	-3,93722E-004	13	...........	63,49
	105	52,5	1,80086E+000	1,76652E+001	0,00000E+000	1,80500E+000	-3,91388E-004	13	...........	63,48
	106	53	1,80087E+000	1,76636E+001	0,00000E+000	1,80500E+000	-3,94688E-004	13	...........	63,48
	107	53,5	1,80085E+000	1,76637E+001	0,00000E+000	1,80500E+000	-3,93955E-004	13	...........	63,48
	108	54	1,80086E+000	1,76630E+001	0,00000E+000	1,80500E+000	-3,88622E-004	13	...........	63,48
	109	54,5	1,80088E+000	1,76638E+001	0,00000E+000	1,80500E+000	-3,91022E-004	13	...........	63,48
	110	55	1,80086E+000	1,76645E+001	0,00000E+000	1,80500E+000	-3,91855E-004	13	...........	63,48
	111	55,5	1,80086E+000	1,76617E+001	0,00000E+000	1,80500E+000	-3,88188E-004	13	...........	63,49
	112	56	1,80087E+000	1,76610E+001	0,00000E+000	1,80500E+000	-3,87455E-004	13	...........	63,48
	113	56,5	1,80086E+000	1,76598E+001	0,00000E+000	1,80500E+000	-3,87155E-004	13	...........	63,48
	114	57	1,80085E+000	1,76620E+001	0,00000E+000	1,80500E+000	-3,86988E-004	13	...........	63,48
	115	57,5	1,80087E+000	1,76601E+001	0,00000E+000	1,80500E+000	-3,92988E-004	13	...........	63,48
	116	58	1,80087E+000	1,76624E+001	0,00000E+000	1,80500E+000	-3,90555E-004	13	...........	63,48
	117	58,5	1,80086E+000	1,76606E+001	0,00000E+000	1,80500E+000	-3,90122E-004	13	...........	63,48
	118	59	1,80087E+000	1,76648E+001	0,00000E+000	1,80500E+000	-3,91155E-004	13	...........	63,49
	119	59,5	1,80086E+000	1,76614E+001	0,00000E+000	1,80500E+000	-3,84488E-004	13	...........	63,49
	120	60	1,80087E+000	1,76633E+001	0,00000E+000	1,80500E+000	-3,87655E-004	13	...........	63,48
