EXPLAIN
TAG	EISPOT
TITLE	LABEL	Potentiostatic EIS	Test Identifier
DATE	LABEL	27/5/2026	Date
TIME	LABEL	20:38:27	Time
NOTES	NOTES	1	Notes...
	
PSTAT	PSTAT	REF3000-46189	Potentiostat
VDC	POTEN	1,51121E+000	F	Last Measured Potential (V)
FREQINIT	QUANT	1,00000E+005	Initial Freq. (Hz)
FREQFINAL	QUANT	1,00000E-001	Final Freq. (Hz)
PTSPERDEC	QUANT	1,00000E+001	Points/decade
VAC	QUANT	5,00000E+000	AC Voltage (mV rms)
AREA	QUANT	2,50000E+001	Sample Area (cm^2)
SPEED	SELECTOR	1	Optimize for:
DRIFTCOR	SELECTOR	0	Drift Correction
THD	SELECTOR	0	THD
ZGUESS	QUANT	2,00000E-002	Estimated Z (ohms)
EOC	QUANT	0,1080353	Open Circuit (V)
SEQUENCER	TOGGLE	TRUE	Run as Sequence
PSTATMODEL	IQUANT	6	Pstat Model
PSTATSECTION	LABEL	REF30K-46189	Pstat Section
PSTATSERIALNO	LABEL	46189	Pstat Serial Number
CTRLMODE	IQUANT	1	Control Mode
ELECTROMETER	IQUANT	0	RE=0 or CS=1
IESTAB	IQUANT	0	I/E Stability
CASPEED	IQUANT	3	Control Amp Speed
CONVENTION	IQUANT	1	Current Convention
ICHRANGE	IQUANT	2	Ich Range
ICHRANGEMODE	TOGGLE	F	Ich Auto Range
ICHOFFSETENABLE	TOGGLE	T	Ich Offset Enable
ICHOFFSET	QUANT	0	Ich Offset (V)
ICHFILTER	IQUANT	3	Ich Filter
VCHRANGE	IQUANT	2	Vch Range
VCHRANGEMODE	TOGGLE	F	Vch Auto Range
VCHOFFSETENABLE	TOGGLE	T	Vch Offset Enable
VCHOFFSET	QUANT	0	Vch Offset (V)
VCHFILTER	IQUANT	3	Vch Filter
ACHRANGE	IQUANT	2	Ach Range
ACHOFFSETENABLE	TOGGLE	F	Ach Offset Enable
ACHOFFSET	QUANT	0	Ach Offset (V)
ACHFILTER	IQUANT	1	Ach Filter
IERANGELOWERLIMIT	IQUANT	13	I/E Range Lower Limit
IERANGEMODE	TOGGLE	F	I/E AutoRange
IERANGE	IQUANT	13	I/E Range
POSFEEDENABLE	TOGGLE	F	Positive Feedback IR Comp
POSFEEDRESISTANCE	QUANT	0	Positive Feedback Resistance (ohm)
ACHSELECT	IQUANT	4	Ach Select
SENSECABLEID	IQUANT	14	Sense Cable ID
PWRCABLEID	IQUANT	8	Power Cable ID
DCCALDATE	LABEL	10/1/2025	DC Calibration Date
ACCALDATE	LABEL	10/1/2025	AC Calibration Date
THERMOSELECT	IQUANT	1	Thermo Select
FRAMEWORKVERSION	LABEL	7.10.1	Framework Version
INSTRUMENTVERSION	LABEL	4.80	Instrument Version
COMMVERSION	LABEL	5.10	Communications Version
CPUPLDVERSION	LABEL	6.00	CPU PLD Version
CTRLPLDVERSION	LABEL	3.21	CTRL PLD Version
PSTATPLDVERSION	LABEL	0.00	PSTAT PLD Version
BOOSTERDCCALDATE	LABEL	10/1/2025	Booster DC Calibration Date
ZCURVE	TABLE
	Pt	Time	Freq	Zreal	Zimag	Zsig	Zmod	Zphz	Idc	Vdc	IERange	Imod	Vmod	Temp
	#	s	Hz	ohm	ohm	V	ohm	°	A	V	#	A	V	°C
	0	3	100078,1	0,0125297	0,0073936	1	0,0145485	30,54429	1,292773	1,509462	13	0,3449377	0,0049971	62,23065
	1	6	79453,13	0,0123072	0,006027	1	0,0137037	26,09163	1,293863	1,50947	13	0,4725022	0,0064537	62,22324
	2	7	63140,62	0,0121214	0,0049144	1	0,0130798	22,06911	1,294545	1,509464	13	0,488227	0,0063684	62,23343
	3	9	50203,12	0,0119627	0,004009	1	0,0126166	18,52735	1,292322	1,509466	13	0,4956472	0,0062395	62,23823
	4	11	39890,62	0,0118332	0,0032556	1	0,0122729	15,38305	1,291823	1,509459	13	0,5022711	0,0061537	62,23697
	5	13	31640,63	0,0117289	0,0026357	1	0,0120214	12,66486	1,292831	1,509473	13	0,5046697	0,0060592	62,24741
	6	16	25171,88	0,0116465	0,002134	1	0,0118404	10,38302	1,292018	1,509457	13	0,5004985	0,0059209	62,24959
	7	17	20015,62	0,0115843	0,0017248	1	0,011712	8,468376	1,29322	1,509475	13	0,4947408	0,0057909	62,24983
	8	19	15890,62	0,0115369	0,0013867	1	0,0116199	6,854017	1,293882	1,509472	13	0,4879501	0,0056677	62,25169
	9	21	12609,38	0,0114976	0,0011073	1	0,0115508	5,501225	1,293967	1,509472	13	0,4764369	0,0055018	62,25854
	10	23	10078,13	0,0114725	0,0008875	1	0,0115067	4,423715	1,294139	1,509473	13	0,4660174	0,0053615	62,25004
	11	24	8015,625	0,0114513	0,0007027	1	0,0114728	3,511436	1,293632	1,509457	13	0,4588721	0,005264	62,24673
	12	26	6328,125	0,0114379	0,0005469	1	0,0114509	2,737743	1,292938	1,509479	13	0,4532993	0,0051904	62,25885
	13	28	5015,625	0,0114272	0,0004221	1	0,011435	2,115223	1,293627	1,50946	13	0,4482704	0,0051258	62,25867
	14	29	3984,375	0,0114163	0,0003109	1	0,0114205	1,560046	1,292337	1,509457	13	0,4446763	0,0050783	62,26204
	15	31	3170,956	0,0114144	0,0002182	1	0,0114165	1,095286	1,292602	1,509456	13	0,442534	0,0050521	62,25578
	16	32	2527,573	0,0114108	0,0001346	1	0,0114116	0,6757427	1,291704	1,509453	13	0,4408914	0,0050312	62,25132
	17	34	1976,103	0,0114194	5,633865E-005	1	0,0114195	0,2826726	1,292702	1,509462	13	0,4398573	0,0050229	62,23966
	18	36	1577,524	0,0114267	-1,231603E-005	1	0,0114267	-0,0617552	1,29244	1,509474	13	0,4387425	0,0050133	62,25251
	19	38	1265,625	0,0114412	-7,801216E-005	1	0,0114415	-0,3906671	1,293305	1,509471	13	0,4376704	0,0050076	62,23835
	20	39	998,264	0,0114641	-0,0001414	1	0,011465	-0,7065517	1,294353	1,509479	13	0,4364938	0,0050044	62,2522
	21	41	796,875	0,0114862	-0,0002052	1	0,011488	-1,023482	1,293612	1,50946	13	0,4354705	0,0050027	62,25718
	22	42	627,7902	0,0115162	-0,0002742	1	0,0115195	-1,363879	1,294518	1,509467	13	0,434215	0,0050019	62,26388
	23	44	505,5147	0,0115523	-0,0003409	1	0,0115574	-1,690341	1,29493	1,509467	13	0,4261148	0,0049628	62,27618
	24	45	397,9953	0,0115964	-0,0004156	1	0,0116038	-2,052449	1,296226	1,509467	13	0,4326528	0,0050431	62,28535
	25	47	315,5048	0,011644	-0,0004945	1	0,0116545	-2,431662	1,295339	1,509444	13	0,4285637	0,0050082	62,29211
	26	48	252,4038	0,0116971	-0,0005791	1	0,0117114	-2,834048	1,295644	1,509466	13	0,4260668	0,0049982	62,29779
	27	50	198,6229	0,0117635	-0,0006829	1	0,0117833	-3,322629	1,296268	1,509452	13	0,4235565	0,0049959	62,29058
	28	51	158,3615	0,0118345	-0,0007934	1	0,0118611	-3,835587	1,29706	1,509475	13	0,4208286	0,0049946	62,29768
	29	53	125,558	0,0119216	-0,0009234	1	0,0119573	-4,428995	1,297235	1,509475	13	0,4175598	0,0049948	62,29621
	30	55	100,4464	0,0120183	-0,0010682	1	0,0120656	-5,079392	1,297334	1,509467	13	0,414004	0,0049965	62,30035
	31	56	79,00281	0,0121404	-0,0012496	1	0,0122046	-5,876715	1,297242	1,509453	13	0,4093296	0,0049965	62,29612
	32	58	63,3446	0,0122806	-0,0014379	1	0,0123645	-6,678125	1,297957	1,509467	13	0,4035955	0,0049907	62,2965
	33	60	50,22321	0,0124562	-0,0016619	1	0,0125666	-7,599287	1,298808	1,509466	13	0,3969413	0,0049885	62,30127
	34	61	38,42213	0,0126997	-0,0019571	1	0,0128496	-8,760869	1,299272	1,509462	13	0,3862571	0,0049634	62,28694
	35	63	31,25	0,0129356	-0,002207	1	0,0131226	-9,68239	1,298685	1,509458	13	0,3758199	0,0049318	62,29871
	36	64	24,93351	0,0132366	-0,0024909	1	0,0134689	-10,65724	1,298436	1,509454	13	0,3591763	0,0048378	62,29481
	37	66	19,86229	0,013612	-0,0028074	1	0,0138985	-11,65369	1,297354	1,509466	13	0,3860834	0,005366	62,28941
	38	68	15,625	0,0140656	-0,0031381	1	0,0144114	-12,577	1,292439	1,509452	13	0,3467543	0,0049972	62,3004
	39	69	12,40079	0,0145029	-0,0034676	1	0,0149117	-13,44659	1,292236	1,509447	13	0,3348705	0,0049935	62,30278
	40	71	9,93114	0,0149441	-0,003787	1	0,0154165	-14,22	1,295752	1,509459	13	0,3249075	0,0050089	62,3171
	41	72	7,944915	0,0154198	-0,0041382	1	0,0159654	-15,02229	1,297788	1,509463	13	0,3129193	0,0049959	62,30706
	42	74	6,317385	0,0159404	-0,0045294	1	0,0165714	-15,86217	1,298593	1,509458	13	0,3016595	0,0049989	62,3087
	43	77	5,008013	0,01652	-0,0050111	1	0,0172633	-16,87451	1,297932	1,509459	13	0,28991	0,0050048	62,30824
	44	79	3,945707	0,0172312	-0,0055797	1	0,0181121	-17,94261	1,299001	1,509469	13	0,2759636	0,0049983	62,31071
	45	81	3,158693	0,0180277	-0,0061889	1	0,0190604	-18,94736	1,298985	1,509462	13	0,2622554	0,0049987	62,31619
	46	84	2,504006	0,019045	-0,006858	1	0,0202422	-19,80375	1,298651	1,509456	13	0,23915	0,0048475	62,32829
	47	88	1,998082	0,0203045	-0,0074702	1	0,0216351	-20,19908	1,299177	1,509463	13	0,2351924	0,005093	62,34561
	48	92	1,584686	0,0218324	-0,007954	1	0,0232361	-20,01775	1,298915	1,509463	13	0,2166749	0,0050376	62,34208
	49	97	1,266892	0,0234923	-0,0081438	1	0,0248639	-19,11922	1,298815	1,509463	13	0,2017802	0,0050189	62,34748
	50	103	0,999041	0,0252774	-0,0079623	1	0,0265018	-17,48418	1,299575	1,509461	13	0,1889197	0,0050079	62,34776
	51	109	0,7923428	0,0269306	-0,007482	1	0,0279507	-15,52657	1,298686	1,509454	13	0,1785742	0,004992	62,34857
	52	116	0,6334459	0,0282881	-0,006743	1	0,0290807	-13,40735	1,297734	1,509462	13	0,1720792	0,0050047	62,35631
	53	124	0,5040323	0,0293874	-0,0058625	1	0,0299665	-11,28179	1,297586	1,509458	13	0,1668755	0,005001	62,35469
	54	135	0,400641	0,0301935	-0,0049469	1	0,030596	-9,304667	1,297173	1,509462	13	0,163618	0,0050062	62,35313
	55	147	0,316723	0,0307961	-0,0041201	1	0,0310705	-7,620129	1,296176	1,509461	13	0,160808	0,0049965	62,31299
	56	164	0,2520161	0,0311937	-0,0034061	1	0,0313791	-6,231487	1,296726	1,509462	13	0,1593931	0,0050017	62,3175
	57	186	0,2003205	0,0314684	-0,0027989	1	0,0315927	-5,082766	1,295	1,509459	13	0,1583667	0,0050033	62,33371
	58	207	0,1588983	0,0316737	-0,0022982	1	0,0317569	-4,149992	1,295585	1,509461	13	0,1573098	0,0049957	62,33441
	59	233	0,1260081	0,0317938	-0,001925	1	0,031852	-3,464854	1,295558	1,509463	13	0,1570767	0,0050032	62,32096
	60	271	0,1001603	0,031927	-0,0015531	1	0,0319647	-2,784939	1,294017	1,50946	13	0,1563345	0,0049972	62,32006
