EXPLAIN
TAG	EISPOT
TITLE	LABEL	Potentiostatic EIS	Test Identifier
DATE	LABEL	4/6/2026	Date
TIME	LABEL	12:56:45	Time
NOTES	NOTES	1	Notes...
	
PSTAT	PSTAT	REF3000-46189	Potentiostat
VDC	POTEN	1,52327E+000	F	Last Measured Potential (V)
FREQINIT	QUANT	1,00000E+005	Initial Freq. (Hz)
FREQFINAL	QUANT	1,00000E-001	Final Freq. (Hz)
PTSPERDEC	QUANT	1,00000E+001	Points/decade
VAC	QUANT	5,00000E+000	AC Voltage (mV rms)
AREA	QUANT	2,50000E+001	Sample Area (cm^2)
SPEED	SELECTOR	1	Optimize for:
DRIFTCOR	SELECTOR	0	Drift Correction
THD	SELECTOR	0	THD
ZGUESS	QUANT	2,00000E-002	Estimated Z (ohms)
EOC	QUANT	0,0657411	Open Circuit (V)
SEQUENCER	TOGGLE	TRUE	Run as Sequence
PSTATMODEL	IQUANT	6	Pstat Model
PSTATSECTION	LABEL	REF30K-46189	Pstat Section
PSTATSERIALNO	LABEL	46189	Pstat Serial Number
CTRLMODE	IQUANT	1	Control Mode
ELECTROMETER	IQUANT	0	RE=0 or CS=1
IESTAB	IQUANT	0	I/E Stability
CASPEED	IQUANT	3	Control Amp Speed
CONVENTION	IQUANT	1	Current Convention
ICHRANGE	IQUANT	2	Ich Range
ICHRANGEMODE	TOGGLE	F	Ich Auto Range
ICHOFFSETENABLE	TOGGLE	T	Ich Offset Enable
ICHOFFSET	QUANT	0	Ich Offset (V)
ICHFILTER	IQUANT	3	Ich Filter
VCHRANGE	IQUANT	2	Vch Range
VCHRANGEMODE	TOGGLE	F	Vch Auto Range
VCHOFFSETENABLE	TOGGLE	T	Vch Offset Enable
VCHOFFSET	QUANT	0	Vch Offset (V)
VCHFILTER	IQUANT	3	Vch Filter
ACHRANGE	IQUANT	2	Ach Range
ACHOFFSETENABLE	TOGGLE	F	Ach Offset Enable
ACHOFFSET	QUANT	0	Ach Offset (V)
ACHFILTER	IQUANT	1	Ach Filter
IERANGELOWERLIMIT	IQUANT	13	I/E Range Lower Limit
IERANGEMODE	TOGGLE	F	I/E AutoRange
IERANGE	IQUANT	13	I/E Range
POSFEEDENABLE	TOGGLE	F	Positive Feedback IR Comp
POSFEEDRESISTANCE	QUANT	0	Positive Feedback Resistance (ohm)
ACHSELECT	IQUANT	4	Ach Select
SENSECABLEID	IQUANT	14	Sense Cable ID
PWRCABLEID	IQUANT	8	Power Cable ID
DCCALDATE	LABEL	10/1/2025	DC Calibration Date
ACCALDATE	LABEL	10/1/2025	AC Calibration Date
THERMOSELECT	IQUANT	1	Thermo Select
FRAMEWORKVERSION	LABEL	7.10.1	Framework Version
INSTRUMENTVERSION	LABEL	4.80	Instrument Version
COMMVERSION	LABEL	5.10	Communications Version
CPUPLDVERSION	LABEL	6.00	CPU PLD Version
CTRLPLDVERSION	LABEL	3.21	CTRL PLD Version
PSTATPLDVERSION	LABEL	0.00	PSTAT PLD Version
BOOSTERDCCALDATE	LABEL	10/1/2025	Booster DC Calibration Date
ZCURVE	TABLE
	Pt	Time	Freq	Zreal	Zimag	Zsig	Zmod	Zphz	Idc	Vdc	IERange	Imod	Vmod	Temp
	#	s	Hz	ohm	ohm	V	ohm	°	A	V	#	A	V	°C
	0	3	100078,1	0,0119207	0,0074407	1	0,0140523	31,97176	1,278869	1,521361	13	0,3570859	0,0049966	61,56849
	1	6	79453,13	0,0117016	0,0060588	1	0,0131771	27,37387	1,28002	1,521345	13	0,4919607	0,0064613	61,57258
	2	7	63140,62	0,0115162	0,0049318	1	0,0125278	23,18278	1,278386	1,521356	13	0,5095235	0,0063657	61,56551
	3	9	50203,12	0,0113575	0,0040147	1	0,0120462	19,46779	1,279297	1,521358	13	0,5200801	0,0062511	61,57808
	4	12	39890,62	0,0112324	0,0032554	1	0,0116947	16,1628	1,279144	1,521358	13	0,5275819	0,0061593	61,56668
	5	14	31640,63	0,0111329	0,002628	1	0,0114389	13,28211	1,278727	1,52136	13	0,5302243	0,0060576	61,57743
	6	17	25171,88	0,0110587	0,0021239	1	0,0112608	10,87148	1,279235	1,521346	13	0,5268698	0,0059277	61,58477
	7	18	20015,62	0,0109991	0,0017084	1	0,011131	8,828929	1,279222	1,521355	13	0,5198572	0,0057831	61,58009
	8	20	15890,62	0,0109568	0,0013675	1	0,0110419	7,114421	1,28012	1,521363	13	0,5133839	0,0056665	61,59467
	9	22	12609,38	0,0109248	0,0010893	1	0,010979	5,694107	1,279212	1,521354	13	0,500546	0,0054941	61,59404
	10	24	10078,13	0,010904	0,0008677	1	0,0109385	4,549732	1,278593	1,521349	13	0,4894789	0,0053533	61,58826
	11	25	8015,625	0,0108851	0,0006843	1	0,0109066	3,596951	1,279644	1,521365	13	0,4822982	0,0052597	61,59193
	12	27	6328,125	0,0108714	0,0005282	1	0,0108842	2,781713	1,280493	1,52136	13	0,4766533	0,0051877	61,59348
	13	29	5015,625	0,0108626	0,0003994	1	0,01087	2,105965	1,279281	1,521347	13	0,4711321	0,005121	61,58327
	14	30	3984,375	0,0108616	0,0002909	1	0,0108655	1,534168	1,279748	1,521363	13	0,4676649	0,0050813	61,58076
	15	32	3170,956	0,0108563	0,0001997	1	0,0108582	1,053885	1,278805	1,521338	13	0,4649144	0,005048	61,58039
	16	34	2527,573	0,0108665	0,0001192	1	0,0108672	0,6287138	1,279768	1,521344	13	0,4633932	0,0050357	61,58613
	17	35	1976,103	0,0108701	3,535286E-005	1	0,0108701	0,1863429	1,280674	1,521378	13	0,4616437	0,0050181	61,57592
	18	37	1577,524	0,0108815	-3,392508E-005	1	0,0108816	-0,1786295	1,279714	1,521369	13	0,4604775	0,0050107	61,57761
	19	39	1265,625	0,0108961	-0,0000982	1	0,0108966	-0,5164516	1,279043	1,521353	13	0,4595942	0,005008	61,56271
	20	40	998,264	0,0109193	-0,0001656	1	0,0109205	-0,8690901	1,27914	1,521365	13	0,458297	0,0050048	61,57248
	21	42	796,875	0,0109467	-0,0002278	1	0,0109491	-1,192376	1,279482	1,521372	13	0,4567611	0,0050011	61,58006
	22	44	627,7902	0,0109831	-0,0002953	1	0,010987	-1,540068	1,279449	1,521361	13	0,4552748	0,0050021	61,56441
	23	45	505,5147	0,0110208	-0,000362	1	0,0110268	-1,881545	1,279121	1,521353	13	0,4465714	0,0049623	61,55261
	24	47	397,9953	0,0110647	-0,0004379	1	0,0110734	-2,266351	1,278626	1,521345	13	0,4534325	0,0050437	61,54744
	25	48	315,5048	0,0111172	-0,0005159	1	0,0111292	-2,657072	1,27995	1,521361	13	0,4487576	0,0050078	61,53787
	26	50	252,4038	0,0111747	-0,0006024	1	0,011191	-3,085748	1,279294	1,521344	13	0,4458248	0,0049975	61,52819
	27	51	198,6229	0,0112413	-0,0007086	1	0,0112636	-3,607094	1,278453	1,521356	13	0,4431426	0,0049964	61,52688
	28	53	158,3615	0,0113171	-0,0008215	1	0,0113469	-4,151641	1,279005	1,521361	13	0,439832	0,0049939	61,53634
	29	54	125,558	0,0114044	-0,0009539	1	0,0114442	-4,781332	1,278761	1,521357	13	0,4363045	0,0049951	61,53568
	30	56	100,4464	0,0115066	-0,0011029	1	0,0115593	-5,475096	1,280544	1,521361	13	0,4321726	0,0049969	61,53513
	31	57	79,00281	0,0116339	-0,0012864	1	0,0117048	-6,309653	1,280688	1,521365	13	0,4265469	0,0049934	61,53654
	32	59	63,3446	0,0117801	-0,0014823	1	0,011873	-7,172128	1,280393	1,52134	13	0,4206123	0,0049944	61,53447
	33	60	50,22321	0,0119636	-0,0017121	1	0,0120855	-8,144329	1,280973	1,521358	13	0,4126291	0,0049871	61,53497
	34	62	38,42213	0,0122228	-0,0020163	1	0,012388	-9,367416	1,282758	1,521355	13	0,4001512	0,0049572	61,54446
	35	64	31,25	0,0124606	-0,0022621	1	0,0126642	-10,28965	1,283013	1,521371	13	0,3891429	0,0049283	61,55115
	36	65	24,93351	0,0127795	-0,0025567	1	0,0130327	-11,3134	1,283404	1,521362	13	0,3704489	0,004828	61,5388
	37	67	19,86229	0,0131722	-0,0028589	1	0,0134788	-12,24573	1,278083	1,52134	13	0,4000109	0,0053917	61,5428
	38	68	15,625	0,013639	-0,0031901	1	0,0140071	-13,16446	1,275399	1,52135	13	0,3567389	0,0049969	61,55107
	39	70	12,40079	0,0140684	-0,0035098	1	0,0144997	-14,00825	1,276576	1,521345	13	0,3445519	0,0049959	61,56658
	40	71	9,93114	0,0144862	-0,0038296	1	0,0149839	-14,80808	1,280015	1,521342	13	0,3335165	0,0049974	61,55577
	41	73	7,944915	0,0149716	-0,004184	1	0,0155452	-15,61381	1,279724	1,521348	13	0,3219199	0,0050043	61,55038
	42	75	6,317385	0,0154965	-0,0046057	1	0,0161664	-16,55245	1,280637	1,521347	13	0,3089835	0,0049952	61,55726
	43	77	5,008013	0,016082	-0,0050973	1	0,0168705	-17,58632	1,280798	1,521347	13	0,2965221	0,0050025	61,56107
	44	80	3,945707	0,0168335	-0,0057152	1	0,0177772	-18,75306	1,280784	1,521342	13	0,2816004	0,0050061	61,55474
	45	83	3,158693	0,0176685	-0,0063431	1	0,0187726	-19,74851	1,280488	1,521343	13	0,2662999	0,0049992	61,56345
	46	86	2,504006	0,0187744	-0,0070146	1	0,020042	-20,4871	1,280051	1,521347	13	0,2415542	0,0048478	61,55555
	47	89	1,998082	0,0201093	-0,0075907	1	0,0214942	-20,68005	1,280016	1,521347	13	0,2361329	0,0050801	61,55774
	48	95	1,584686	0,0217117	-0,0079777	1	0,023131	-20,17517	1,280342	1,521342	13	0,2178432	0,0050418	61,55489
	49	99	1,266892	0,0233608	-0,0080499	1	0,0247089	-19,01353	1,28126	1,521345	13	0,2031559	0,0050216	61,54753
	50	105	0,999041	0,0251325	-0,0077635	1	0,0263043	-17,16612	1,281646	1,521347	13	0,1900579	0,0050005	61,55388
	51	110	0,7923428	0,0266621	-0,0071779	1	0,0276114	-15,06785	1,282528	1,521346	13	0,1812623	0,0050057	61,55211
	52	118	0,6334459	0,0279075	-0,0063913	1	0,02863	-12,89918	1,281928	1,52135	13	0,174884	0,0050074	61,56812
	53	126	0,5040323	0,02896	-0,0055196	1	0,0294813	-10,79076	1,280297	1,521347	13	0,1696482	0,0050017	61,57265
	54	136	0,400641	0,0297013	-0,0046535	1	0,0300636	-8,904462	1,278477	1,521347	13	0,1662038	0,0049969	61,57343
	55	147	0,316723	0,0301529	-0,0038099	1	0,0303926	-7,201399	1,280181	1,52135	13	0,1645597	0,0050015	61,58922
	56	161	0,2520161	0,030515	-0,0031489	1	0,030677	-5,891677	1,279125	1,521351	13	0,1629322	0,0049983	61,58974
	57	183	0,2003205	0,0307533	-0,0026058	1	0,0308635	-4,843208	1,278107	1,52135	13	0,1619843	0,0049995	61,5758
	58	209	0,1588983	0,0309505	-0,0021325	1	0,0310239	-3,941407	1,278244	1,521351	13	0,1611872	0,0050007	61,60111
	59	235	0,1260081	0,0310746	-0,0017469	1	0,0311236	-3,217596	1,280304	1,521353	13	0,160686	0,0050011	61,61514
	60	273	0,1001603	0,0311013	-0,0014254	1	0,031134	-2,624115	1,280015	1,521351	13	0,1605943	0,005	61,62316
