EXPLAIN
TAG	EISPOT
TITLE	LABEL	Potentiostatic EIS	Test Identifier
DATE	LABEL	27/5/2026	Date
TIME	LABEL	20:54:49	Time
NOTES	NOTES	1	Notes...
	
PSTAT	PSTAT	REF3000-46189	Potentiostat
VDC	POTEN	1,79559E+000	F	Last Measured Potential (V)
FREQINIT	QUANT	1,00000E+005	Initial Freq. (Hz)
FREQFINAL	QUANT	1,00000E-001	Final Freq. (Hz)
PTSPERDEC	QUANT	1,00000E+001	Points/decade
VAC	QUANT	5,00000E+000	AC Voltage (mV rms)
AREA	QUANT	2,50000E+001	Sample Area (cm^2)
SPEED	SELECTOR	1	Optimize for:
DRIFTCOR	SELECTOR	0	Drift Correction
THD	SELECTOR	0	THD
ZGUESS	QUANT	2,00000E-002	Estimated Z (ohms)
EOC	QUANT	0,1080353	Open Circuit (V)
SEQUENCER	TOGGLE	TRUE	Run as Sequence
PSTATMODEL	IQUANT	6	Pstat Model
PSTATSECTION	LABEL	REF30K-46189	Pstat Section
PSTATSERIALNO	LABEL	46189	Pstat Serial Number
CTRLMODE	IQUANT	1	Control Mode
ELECTROMETER	IQUANT	0	RE=0 or CS=1
IESTAB	IQUANT	0	I/E Stability
CASPEED	IQUANT	3	Control Amp Speed
CONVENTION	IQUANT	1	Current Convention
ICHRANGE	IQUANT	2	Ich Range
ICHRANGEMODE	TOGGLE	F	Ich Auto Range
ICHOFFSETENABLE	TOGGLE	T	Ich Offset Enable
ICHOFFSET	QUANT	0	Ich Offset (V)
ICHFILTER	IQUANT	3	Ich Filter
VCHRANGE	IQUANT	2	Vch Range
VCHRANGEMODE	TOGGLE	F	Vch Auto Range
VCHOFFSETENABLE	TOGGLE	T	Vch Offset Enable
VCHOFFSET	QUANT	0	Vch Offset (V)
VCHFILTER	IQUANT	3	Vch Filter
ACHRANGE	IQUANT	2	Ach Range
ACHOFFSETENABLE	TOGGLE	F	Ach Offset Enable
ACHOFFSET	QUANT	0	Ach Offset (V)
ACHFILTER	IQUANT	1	Ach Filter
IERANGELOWERLIMIT	IQUANT	13	I/E Range Lower Limit
IERANGEMODE	TOGGLE	F	I/E AutoRange
IERANGE	IQUANT	13	I/E Range
POSFEEDENABLE	TOGGLE	F	Positive Feedback IR Comp
POSFEEDRESISTANCE	QUANT	0	Positive Feedback Resistance (ohm)
ACHSELECT	IQUANT	4	Ach Select
SENSECABLEID	IQUANT	14	Sense Cable ID
PWRCABLEID	IQUANT	8	Power Cable ID
DCCALDATE	LABEL	10/1/2025	DC Calibration Date
ACCALDATE	LABEL	10/1/2025	AC Calibration Date
THERMOSELECT	IQUANT	1	Thermo Select
FRAMEWORKVERSION	LABEL	7.10.1	Framework Version
INSTRUMENTVERSION	LABEL	4.80	Instrument Version
COMMVERSION	LABEL	5.10	Communications Version
CPUPLDVERSION	LABEL	6.00	CPU PLD Version
CTRLPLDVERSION	LABEL	3.21	CTRL PLD Version
PSTATPLDVERSION	LABEL	0.00	PSTAT PLD Version
BOOSTERDCCALDATE	LABEL	10/1/2025	Booster DC Calibration Date
ZCURVE	TABLE
	Pt	Time	Freq	Zreal	Zimag	Zsig	Zmod	Zphz	Idc	Vdc	IERange	Imod	Vmod	Temp
	#	s	Hz	ohm	ohm	V	ohm	°	A	V	#	A	V	°C
	0	4	100078,1	0,0125333	0,0072786	1	0,0144935	30,14557	17,48645	1,792596	13	0,3463928	0,0049992	61,96313
	1	7	79453,13	0,0123031	0,0059312	1	0,0136582	25,73831	17,47493	1,792597	13	0,4748727	0,0064645	61,9617
	2	8	63140,62	0,0121135	0,0048229	1	0,0130383	21,70959	17,47014	1,792584	13	0,4863704	0,0063241	61,95193
	3	10	50203,12	0,0119487	0,0039166	1	0,0125743	18,14828	17,46799	1,79258	13	0,4933318	0,0061895	61,95411
	4	12	39890,62	0,0118243	0,0031694	1	0,0122417	15,00481	17,46693	1,792591	13	0,5086415	0,0062159	61,95365
	5	13	31640,63	0,0117349	0,002548	1	0,0120083	12,2504	17,46482	1,792597	13	0,5089623	0,0061041	61,94641
	6	15	25171,88	0,0116621	0,0020487	1	0,0118406	9,96374	17,46543	1,792588	13	0,5060029	0,0059861	61,95137
	7	17	20015,62	0,0116121	0,0016438	1	0,0117279	8,057118	17,46697	1,79258	13	0,5012547	0,0058751	61,9656
	8	18	15890,62	0,0115768	0,0013075	1	0,0116504	6,443989	17,46399	1,792576	13	0,4930807	0,0057423	61,96141
	9	20	12609,38	0,011553	0,0010374	1	0,0115995	5,131111	17,46661	1,792591	13	0,484365	0,005617	61,96917
	10	22	10078,13	0,0115386	0,0008275	1	0,0115682	4,102161	17,46739	1,79258	13	0,4705886	0,005443	61,97413
	11	23	8015,625	0,0115252	0,0006481	1	0,0115435	3,218515	17,46753	1,792568	13	0,4622577	0,0053355	61,95703
	12	25	6328,125	0,0115213	0,0004997	1	0,0115322	2,483646	17,46597	1,792576	13	0,4553704	0,0052511	61,96563
	13	27	5015,625	0,0115126	0,000384	1	0,011519	1,910558	17,46534	1,792571	13	0,4485374	0,0051665	61,97812
	14	28	3984,375	0,0115145	0,0002822	1	0,011518	1,404109	17,46671	1,792582	13	0,4440442	0,0051144	61,96975
	15	30	3170,956	0,0115138	0,000195	1	0,0115155	0,970178	17,46509	1,792572	13	0,4406149	0,0050738	61,96617
	16	31	2527,573	0,0115181	0,0001289	1	0,0115188	0,6411483	17,46551	1,792578	13	0,4378024	0,0050429	61,96444
	17	33	1976,103	0,0115218	6,233227E-005	1	0,011522	0,3099642	17,46614	1,792582	13	0,436476	0,005029	61,96633
	18	34	1577,524	0,0115356	4,603168E-006	1	0,0115356	0,0228634	17,46304	1,792575	13	0,4348823	0,0050166	61,96284
	19	36	1265,625	0,0115463	-4,545445E-005	1	0,0115464	-0,2255557	17,46378	1,792578	13	0,4336864	0,0050075	61,95995
	20	38	998,264	0,0115739	-9,325391E-005	1	0,0115742	-0,4616383	17,46379	1,79256	13	0,432815	0,0050095	61,96788
	21	39	796,875	0,0115882	-0,0001422	1	0,0115891	-0,702881	17,46417	1,792581	13	0,4311842	0,004997	61,9646
	22	41	627,7902	0,0116204	-0,0001903	1	0,0116219	-0,9381782	17,46536	1,792588	13	0,4301245	0,0049989	61,96563
	23	42	505,5147	0,0116548	-0,000232	1	0,0116571	-1,140255	17,46366	1,792565	13	0,4223973	0,004962	61,97202
	24	44	397,9953	0,0116939	-0,000276	1	0,0116971	-1,351993	17,46162	1,792564	13	0,4287977	0,0050383	61,96633
	25	45	315,5048	0,0117371	-0,0003206	1	0,0117415	-1,56471	17,46491	1,792571	13	0,4252756	0,0050068	61,98415
	26	47	252,4038	0,0117827	-0,0003642	1	0,0117883	-1,770341	17,46676	1,792551	13	0,4232031	0,0049972	61,96753
	27	48	198,6229	0,0118377	-0,0004112	1	0,0118448	-1,989667	17,46984	1,792579	13	0,4214519	0,0049971	61,97708
	28	50	158,3615	0,0118957	-0,0004586	1	0,0119045	-2,207838	17,47237	1,792588	13	0,4192857	0,0049946	61,99391
	29	51	125,558	0,0119658	-0,000509	1	0,0119766	-2,435963	17,47115	1,792561	13	0,41707	0,0049971	61,99293
	30	53	100,4464	0,0120381	-0,0005613	1	0,0120511	-2,669445	17,47312	1,792557	13	0,4144631	0,004996	61,98365
	31	54	79,00281	0,0121297	-0,0006202	1	0,0121455	-2,92697	17,47502	1,792582	13	0,4112375	0,0049955	61,99048
	32	56	63,3446	0,0122249	-0,0006737	1	0,0122435	-3,154371	17,47252	1,792569	13	0,407824	0,0049937	61,98521
	33	58	50,22321	0,0123378	-0,0007282	1	0,0123592	-3,37757	17,47326	1,792567	13	0,4033878	0,0049859	61,99215
	34	60	38,42213	0,0124856	-0,0007839	1	0,0125102	-3,592453	17,47507	1,792572	13	0,3966692	0,0049626	61,99582
	35	61	31,25	0,0126136	-0,000819	1	0,0126401	-3,714999	17,47279	1,792565	13	0,390311	0,0049337	61,99995
	36	63	24,93351	0,0127643	-0,0008388	1	0,0127919	-3,7598	17,47149	1,792554	13	0,3783444	0,0048398	61,99953
	37	65	19,86229	0,012922	-0,0008624	1	0,0129508	-3,817976	17,47075	1,792571	13	0,4134918	0,0053551	61,99868
	38	66	15,625	0,0131135	-0,0008341	1	0,01314	-3,639237	17,46906	1,792579	13	0,3804347	0,004999	62,0047
	39	68	12,40079	0,013218	-0,000818	1	0,0132433	-3,541312	17,46438	1,792535	13	0,3782505	0,0050093	62,0113
	40	69	9,93114	0,0133521	-0,0007658	1	0,013374	-3,282715	17,46614	1,792567	13	0,3733235	0,0049929	62,0159
	41	71	7,944915	0,0134605	-0,0007157	1	0,0134795	-3,043447	17,46629	1,792558	13	0,3706264	0,0049959	62,01608
	42	73	6,317385	0,0135598	-0,0006835	1	0,013577	-2,885445	17,46763	1,792566	13	0,3684303	0,0050022	61,99635
	43	75	5,008013	0,0136751	-0,0006939	1	0,0136926	-2,904675	17,46623	1,792561	13	0,3646356	0,0049928	62,01156
	44	77	3,945707	0,013744	-0,0006254	1	0,0137583	-2,605155	17,46295	1,792573	13	0,3639572	0,0050074	62,00818
	45	80	3,158693	0,0138307	-0,0006072	1	0,013844	-2,51399	17,46161	1,792561	13	0,3613754	0,0050029	62,00771
	46	83	2,504006	0,0138949	-0,000588	1	0,0139074	-2,423101	17,46478	1,792567	13	0,3481006	0,0048477	62,0018
	47	87	1,998082	0,0139438	-0,0005962	1	0,0139565	-2,448286	17,46432	1,79257	13	0,364208	0,0050877	61,99117
	48	91	1,584686	0,0140386	-0,0005805	1	0,0140506	-2,36793	17,46363	1,792575	13	0,358271	0,0050368	61,992
	49	95	1,266892	0,014139	-0,0006015	1	0,0141518	-2,435849	17,46472	1,792573	13	0,3540941	0,005013	61,98802
	50	102	0,999041	0,014205	-0,0005982	1	0,0142176	-2,411406	17,46645	1,792572	13	0,3524488	0,0050122	61,98595
	51	109	0,7923428	0,0143044	-0,0006096	1	0,0143173	-2,440209	17,46201	1,792568	13	0,3487667	0,0049942	61,97832
	52	117	0,6334459	0,0143704	-0,000626	1	0,0143841	-2,494364	17,45833	1,79257	13	0,347587	0,0050002	61,98592
	53	125	0,5040323	0,0144626	-0,0005977	1	0,0144749	-2,366681	17,45924	1,792577	13	0,3459597	0,005008	61,99244
	54	136	0,400641	0,0145459	-0,0006327	1	0,0145596	-2,490652	17,46101	1,792572	13	0,34365	0,0050036	61,99611
	55	148	0,316723	0,0146552	-0,0006418	1	0,0146692	-2,507402	17,46274	1,792571	13	0,3407531	0,0049987	62,01986
	56	162	0,2520161	0,0147586	-0,0006442	1	0,0147726	-2,499434	17,46313	1,792571	13	0,3384184	0,0049994	62,02207
	57	180	0,2003205	0,014864	-0,0006274	1	0,0148772	-2,417131	17,46675	1,792567	13	0,3361645	0,0050012	62,03622
	58	201	0,1588983	0,0149785	-0,0006498	1	0,0149926	-2,483967	17,46271	1,792567	13	0,3332354	0,0049961	62,00196
	59	227	0,1260081	0,0150992	-0,0006185	1	0,0151119	-2,345822	17,46068	1,792571	13	0,3311354	0,0050041	62,02784
	60	257	0,1001603	0,0151783	-0,0006099	1	0,0151905	-2,300929	17,45684	1,792568	13	0,3291939	0,0050006	61,98061
