EXPLAIN
TAG	EISPOT
TITLE	LABEL	Potentiostatic EIS	Test Identifier
DATE	LABEL	27/5/2026	Date
TIME	LABEL	20:46:37	Time
NOTES	NOTES	1	Notes...
	
PSTAT	PSTAT	REF3000-46189	Potentiostat
VDC	POTEN	1,65475E+000	F	Last Measured Potential (V)
FREQINIT	QUANT	1,00000E+005	Initial Freq. (Hz)
FREQFINAL	QUANT	1,00000E-001	Final Freq. (Hz)
PTSPERDEC	QUANT	1,00000E+001	Points/decade
VAC	QUANT	5,00000E+000	AC Voltage (mV rms)
AREA	QUANT	2,50000E+001	Sample Area (cm^2)
SPEED	SELECTOR	1	Optimize for:
DRIFTCOR	SELECTOR	0	Drift Correction
THD	SELECTOR	0	THD
ZGUESS	QUANT	2,00000E-002	Estimated Z (ohms)
EOC	QUANT	0,1080353	Open Circuit (V)
SEQUENCER	TOGGLE	TRUE	Run as Sequence
PSTATMODEL	IQUANT	6	Pstat Model
PSTATSECTION	LABEL	REF30K-46189	Pstat Section
PSTATSERIALNO	LABEL	46189	Pstat Serial Number
CTRLMODE	IQUANT	1	Control Mode
ELECTROMETER	IQUANT	0	RE=0 or CS=1
IESTAB	IQUANT	0	I/E Stability
CASPEED	IQUANT	3	Control Amp Speed
CONVENTION	IQUANT	1	Current Convention
ICHRANGE	IQUANT	2	Ich Range
ICHRANGEMODE	TOGGLE	F	Ich Auto Range
ICHOFFSETENABLE	TOGGLE	T	Ich Offset Enable
ICHOFFSET	QUANT	0	Ich Offset (V)
ICHFILTER	IQUANT	3	Ich Filter
VCHRANGE	IQUANT	2	Vch Range
VCHRANGEMODE	TOGGLE	F	Vch Auto Range
VCHOFFSETENABLE	TOGGLE	T	Vch Offset Enable
VCHOFFSET	QUANT	0	Vch Offset (V)
VCHFILTER	IQUANT	3	Vch Filter
ACHRANGE	IQUANT	2	Ach Range
ACHOFFSETENABLE	TOGGLE	F	Ach Offset Enable
ACHOFFSET	QUANT	0	Ach Offset (V)
ACHFILTER	IQUANT	1	Ach Filter
IERANGELOWERLIMIT	IQUANT	13	I/E Range Lower Limit
IERANGEMODE	TOGGLE	F	I/E AutoRange
IERANGE	IQUANT	13	I/E Range
POSFEEDENABLE	TOGGLE	F	Positive Feedback IR Comp
POSFEEDRESISTANCE	QUANT	0	Positive Feedback Resistance (ohm)
ACHSELECT	IQUANT	4	Ach Select
SENSECABLEID	IQUANT	14	Sense Cable ID
PWRCABLEID	IQUANT	8	Power Cable ID
DCCALDATE	LABEL	10/1/2025	DC Calibration Date
ACCALDATE	LABEL	10/1/2025	AC Calibration Date
THERMOSELECT	IQUANT	1	Thermo Select
FRAMEWORKVERSION	LABEL	7.10.1	Framework Version
INSTRUMENTVERSION	LABEL	4.80	Instrument Version
COMMVERSION	LABEL	5.10	Communications Version
CPUPLDVERSION	LABEL	6.00	CPU PLD Version
CTRLPLDVERSION	LABEL	3.21	CTRL PLD Version
PSTATPLDVERSION	LABEL	0.00	PSTAT PLD Version
BOOSTERDCCALDATE	LABEL	10/1/2025	Booster DC Calibration Date
ZCURVE	TABLE
	Pt	Time	Freq	Zreal	Zimag	Zsig	Zmod	Zphz	Idc	Vdc	IERange	Imod	Vmod	Temp
	#	s	Hz	ohm	ohm	V	ohm	°	A	V	#	A	V	°C
	0	4	100078,1	0,0125194	0,0073426	1	0,0145137	30,39169	8,561007	1,652358	13	0,3459398	0,0049996	62,06256
	1	6	79453,13	0,0122935	0,0059872	1	0,0136739	25,96698	8,556618	1,652363	13	0,4690255	0,0063923	62,05283
	2	7	63140,62	0,0121087	0,0048821	1	0,0130559	21,95889	8,555679	1,652349	13	0,4824466	0,0062815	62,05109
	3	9	50203,12	0,0119489	0,0039762	1	0,0125931	18,40572	8,554822	1,652358	13	0,4898044	0,0061544	62,0474
	4	10	39890,62	0,011825	0,003222	1	0,0122561	15,24162	8,552744	1,652343	13	0,5082856	0,0062189	62,04406
	5	12	31640,63	0,0117261	0,0026028	1	0,0120114	12,51483	8,551603	1,652345	13	0,5104043	0,006123	62,03795
	6	13	25171,88	0,0116459	0,0021094	1	0,0118354	10,2664	8,551396	1,65236	13	0,5107453	0,0060396	62,05054
	7	15	20015,62	0,0115882	0,0016993	1	0,0117122	8,342525	8,549323	1,652348	13	0,5082507	0,0059492	62,05737
	8	17	15890,62	0,0115405	0,001362	1	0,0116205	6,731051	8,551635	1,652361	13	0,5026708	0,005839	62,04271
	9	18	12609,38	0,0115082	0,0010879	1	0,0115595	5,400128	8,550189	1,652364	13	0,4938546	0,0057072	62,05707
	10	20	10078,13	0,0114838	0,0008738	1	0,011517	4,351336	8,550635	1,652357	13	0,4832491	0,0055647	62,05619
	11	22	8015,625	0,0114647	0,0006917	1	0,0114856	3,452746	8,550234	1,652355	13	0,4729894	0,005432	62,05203
	12	24	6328,125	0,011451	0,0005418	1	0,0114638	2,7088	8,550786	1,652347	13	0,4649222	0,0053294	62,06362
	13	25	5015,625	0,0114425	0,0004126	1	0,0114499	2,065201	8,550509	1,652354	13	0,4572735	0,0052355	62,05732
	14	27	3984,375	0,0114336	0,0003134	1	0,0114379	1,57023	8,549909	1,65235	13	0,4507008	0,0051549	62,07519
	15	29	3170,956	0,0114283	0,0002236	1	0,0114305	1,120849	8,548541	1,652347	13	0,4464017	0,0051025	62,07484
	16	30	2527,573	0,011428	0,0001474	1	0,0114289	0,7390246	8,549335	1,652354	13	0,4431795	0,005065	62,08457
	17	32	1976,103	0,011435	7,061029E-005	1	0,0114353	0,3537917	8,550207	1,652363	13	0,4410057	0,005043	62,09269
	18	34	1577,524	0,0114428	6,41516E-006	1	0,0114428	0,0321215	8,549128	1,652361	13	0,4390364	0,0050238	62,08146
	19	36	1265,625	0,0114572	-5,122401E-005	1	0,0114573	-0,2561616	8,547611	1,652346	13	0,4378397	0,0050165	62,07982
	20	37	998,264	0,011475	-0,0001075	1	0,0114755	-0,5366567	8,546686	1,65235	13	0,436305	0,0050068	62,06927
	21	39	796,875	0,0115016	-0,0001613	1	0,0115027	-0,8034179	8,547141	1,652353	13	0,4350512	0,0050043	62,0699
	22	40	627,7902	0,0115314	-0,0002139	1	0,0115334	-1,0626	8,545601	1,652335	13	0,4333721	0,0049982	62,06451
	23	42	505,5147	0,0115666	-0,0002683	1	0,0115697	-1,328683	8,545276	1,652346	13	0,42553	0,0049613	62,07705
	24	43	397,9953	0,0116083	-0,0003211	1	0,0116127	-1,584377	8,546782	1,652354	13	0,4319102	0,0050383	62,05302
	25	45	315,5048	0,0116552	-0,0003756	1	0,0116612	-1,84573	8,546548	1,652359	13	0,4280999	0,0050056	62,08317
	26	46	252,4038	0,0117071	-0,0004317	1	0,011715	-2,111786	8,543927	1,652344	13	0,4258946	0,0049977	62,07401
	27	48	198,6229	0,0117718	-0,0004955	1	0,0117822	-2,410172	8,542418	1,652334	13	0,4237095	0,0049973	62,07391
	28	49	158,3615	0,0118388	-0,0005596	1	0,011852	-2,706238	8,544346	1,652333	13	0,4212949	0,0049964	62,0663
	29	51	125,558	0,0119172	-0,0006295	1	0,0119338	-3,023952	8,543715	1,652345	13	0,4185096	0,0049964	62,0801
	30	53	100,4464	0,0120037	-0,0007007	1	0,0120241	-3,341005	8,545256	1,652337	13	0,415349	0,0049955	62,08412
	31	54	79,00281	0,012108	-0,0007811	1	0,0121331	-3,691008	8,545861	1,652344	13	0,4117371	0,0049964	62,07135
	32	56	63,3446	0,0122193	-0,0008625	1	0,0122497	-4,037588	8,54431	1,65234	13	0,4074906	0,0049921	62,07168
	33	58	50,22321	0,012349	-0,000948	1	0,0123854	-4,390015	8,544212	1,652355	13	0,4025344	0,0049858	62,07197
	34	60	38,42213	0,0125234	-0,0010546	1	0,0125677	-4,813321	8,545396	1,652347	13	0,3949503	0,0049638	62,06844
	35	61	31,25	0,0126766	-0,0011381	1	0,0127276	-5,130043	8,543383	1,652357	13	0,3874981	0,004932	62,08393
	36	63	24,93351	0,0128599	-0,0012249	1	0,0129182	-5,44096	8,542332	1,652349	13	0,3746154	0,0048394	62,07049
	37	65	19,86229	0,0130837	-0,0013006	1	0,0131482	-5,676997	8,541228	1,652348	13	0,407628	0,0053596	62,06569
	38	66	15,625	0,0133348	-0,0013783	1	0,0134059	-5,90108	8,539711	1,652341	13	0,3730123	0,0050006	62,05777
	39	68	12,40079	0,0136065	-0,001408	1	0,0136791	-5,907977	8,53916	1,652339	13	0,3652957	0,0049969	62,04423
	40	69	9,93114	0,0138751	-0,0014168	1	0,0139472	-5,830491	8,54039	1,652349	13	0,3582313	0,0049963	62,04845
	41	71	7,944915	0,0141342	-0,0013593	1	0,0141994	-5,49325	8,539907	1,652341	13	0,3525839	0,0050065	62,04807
	42	73	6,317385	0,0143937	-0,0012814	1	0,0144506	-5,08743	8,540207	1,652336	13	0,3458928	0,0049984	62,05419
	43	75	5,008013	0,0145978	-0,0012025	1	0,0146472	-4,709283	8,540052	1,652345	13	0,3415318	0,0050025	62,04436
	44	77	3,945707	0,0147935	-0,0010422	1	0,0148301	-4,029978	8,539771	1,652339	13	0,3371083	0,0049994	62,0491
	45	80	3,158693	0,0149309	-0,0009212	1	0,0149593	-3,530495	8,537218	1,652338	13	0,334346	0,0050016	62,04711
	46	83	2,504006	0,0150412	-0,0007896	1	0,0150619	-3,004857	8,536604	1,652339	13	0,3209114	0,0048401	62,03894
	47	86	1,998082	0,0151177	-0,0007003	1	0,0151339	-2,652084	8,537654	1,652347	13	0,3359078	0,0050882	62,02869
	48	90	1,584686	0,0151925	-0,0006006	1	0,0152044	-2,263759	8,532827	1,652344	13	0,3319252	0,0050496	62,01798
	49	95	1,266892	0,0152536	-0,0005175	1	0,0152623	-1,943041	8,531269	1,652344	13	0,3280244	0,0050083	62,02317
	50	103	0,999041	0,0153101	-0,0004673	1	0,0153172	-1,748153	8,531418	1,652345	13	0,3267313	0,0050058	62,02845
	51	109	0,7923428	0,0153592	-0,0004231	1	0,0153651	-1,578013	8,530348	1,652349	13	0,3254248	0,0050009	62,00994
	52	117	0,6334459	0,0153896	-0,0003872	1	0,0153945	-1,441334	8,533293	1,652344	13	0,3248344	0,0050011	62,00946
	53	124	0,5040323	0,015412	-0,0003634	1	0,0154163	-1,350894	8,533494	1,652347	13	0,3245952	0,0050043	61,99813
	54	134	0,400641	0,0154574	-0,0003254	1	0,0154608	-1,205947	8,526749	1,652348	13	0,3237803	0,0050061	61,98806
	55	145	0,316723	0,0154815	-0,0003159	1	0,0154848	-1,169044	8,52316	1,652345	13	0,322562	0,0049949	61,97261
	56	163	0,2520161	0,0155295	-0,000323	1	0,0155329	-1,191661	8,520293	1,652342	13	0,3218293	0,004999	61,94539
	57	180	0,2003205	0,0155539	-0,0003203	1	0,0155572	-1,179769	8,518127	1,652341	13	0,3215176	0,005002	61,95021
	58	202	0,1588983	0,015602	-0,0003288	1	0,0156054	-1,207454	8,511191	1,652345	13	0,3204468	0,0050007	61,91833
	59	234	0,1260081	0,0156799	-0,0003253	1	0,0156832	-1,188604	8,501209	1,652341	13	0,3188265	0,0050002	61,87803
	60	272	0,1001603	0,0156996	-0,0003395	1	0,0157033	-1,238641	8,49645	1,652336	13	0,3184162	0,0050002	61,82894
