EXPLAIN
TAG	CORPOT
TITLE	LABEL	Open Circuit Potential	Test Identifier
DATE	LABEL	9/3/2026	Date
TIME	LABEL	13:21:33	Time
NOTES	NOTES	1	Notes...
	Primer OCP de la rutin
PSTAT	PSTAT	REF3000-46189	Potentiostat
TIMEOUT	QUANT	6,00000E+001	Total Time (s)
SAMPLETIME	QUANT	1,00000E-001	Sample Period (s)
STABILITY	QUANT	0,00000E+000	Stability (mV/s)
AREA	QUANT	2,50000E+001	Sample Area (cm^2)
SEQUENCER	TOGGLE	TRUE	Run as Sequence
PSTATMODEL	IQUANT	6	Pstat Model
PSTATSECTION	LABEL	REF30K-46189	Pstat Section
PSTATSERIALNO	LABEL	46189	Pstat Serial Number
CTRLMODE	IQUANT	1	Control Mode
ELECTROMETER	IQUANT	0	RE=0 or CS=1
IESTAB	IQUANT	2	I/E Stability
CASPEED	IQUANT	4	Control Amp Speed
CONVENTION	IQUANT	1	Current Convention
ICHRANGE	IQUANT	2	Ich Range
ICHRANGEMODE	TOGGLE	T	Ich Auto Range
ICHOFFSETENABLE	TOGGLE	F	Ich Offset Enable
ICHOFFSET	QUANT	0	Ich Offset (V)
ICHFILTER	IQUANT	2	Ich Filter
VCHRANGE	IQUANT	3	Vch Range
VCHRANGEMODE	TOGGLE	T	Vch Auto Range
VCHOFFSETENABLE	TOGGLE	F	Vch Offset Enable
VCHOFFSET	QUANT	0	Vch Offset (V)
VCHFILTER	IQUANT	2	Vch Filter
ACHRANGE	IQUANT	2	Ach Range
ACHOFFSETENABLE	TOGGLE	F	Ach Offset Enable
ACHOFFSET	QUANT	0	Ach Offset (V)
ACHFILTER	IQUANT	1	Ach Filter
IERANGELOWERLIMIT	IQUANT	10	I/E Range Lower Limit
IERANGEMODE	TOGGLE	F	I/E AutoRange
IERANGE	IQUANT	11	I/E Range
POSFEEDENABLE	TOGGLE	F	Positive Feedback IR Comp
POSFEEDRESISTANCE	QUANT	0	Positive Feedback Resistance (ohm)
ACHSELECT	IQUANT	4	Ach Select
SENSECABLEID	IQUANT	14	Sense Cable ID
PWRCABLEID	IQUANT	8	Power Cable ID
DCCALDATE	LABEL	10/1/2025	DC Calibration Date
ACCALDATE	LABEL	10/1/2025	AC Calibration Date
THERMOSELECT	IQUANT	1	Thermo Select
FRAMEWORKVERSION	LABEL	7.10.1	Framework Version
INSTRUMENTVERSION	LABEL	4.80	Instrument Version
COMMVERSION	LABEL	5.10	Communications Version
CPUPLDVERSION	LABEL	6.00	CPU PLD Version
CTRLPLDVERSION	LABEL	3.21	CTRL PLD Version
PSTATPLDVERSION	LABEL	0.00	PSTAT PLD Version
BOOSTERDCCALDATE	LABEL	10/1/2025	Booster DC Calibration Date
CURVE	TABLE	206
	Pt	T	Vf	Vm	Ach	Over	Temp
	#	s	V vs. Ref.	V	V	bits	deg C
	0	0,11	4,22767E+000	4,22767E+000	5,99116E-005	...........	22,06
	1	0,22	4,22765E+000	4,22661E+000	5,17116E-005	...........	22,05
	2	0,33	4,22753E+000	4,22590E+000	6,73116E-005	...........	22,05
	3	0,44	4,22722E+000	4,22529E+000	5,79116E-005	...........	22,06
	4	0,55	4,22669E+000	4,22447E+000	6,73116E-005	...........	22,06
	5	0,66	4,22602E+000	4,22332E+000	7,25116E-005	...........	22,06
	6	0,77	4,22525E+000	4,22236E+000	6,23116E-005	...........	22,06
	7	0,88	4,22438E+000	4,22145E+000	6,51116E-005	...........	22,05
	8	0,99	4,22345E+000	4,22052E+000	5,75116E-005	...........	22,05
	9	1,1	4,22249E+000	4,21973E+000	5,07116E-005	...........	22,04
	10	1,21	4,22155E+000	4,21906E+000	5,87116E-005	...........	22,05
	11	1,32	4,22068E+000	4,21848E+000	5,77116E-005	...........	22,06
	12	1,43	4,21987E+000	4,21731E+000	6,45116E-005	...........	22,05
	13	1,54	4,21910E+000	4,21643E+000	5,61116E-005	...........	22,04
	14	1,65	4,21829E+000	4,21524E+000	6,13116E-005	...........	22,06
	15	1,76	4,21740E+000	4,21463E+000	6,43116E-005	...........	22,05
	16	1,87	4,21646E+000	4,21357E+000	6,33116E-005	...........	22,06
	17	1,98	4,21552E+000	4,21291E+000	5,03116E-005	...........	22,05
	18	2,09	4,21462E+000	4,21239E+000	5,51116E-005	...........	22,05
	19	2,2	4,21379E+000	4,21149E+000	5,53116E-005	...........	22,05
	20	2,31	4,21303E+000	4,21044E+000	5,83116E-005	...........	22,06
	21	2,42	4,21226E+000	4,20925E+000	6,63116E-005	...........	22,06
	22	2,53	4,21141E+000	4,20852E+000	6,87116E-005	...........	22,07
	23	2,64	4,21048E+000	4,20754E+000	6,47116E-005	...........	22,05
	24	2,75	4,20951E+000	4,20678E+000	4,75116E-005	...........	22,05
	25	2,86	4,20858E+000	4,20618E+000	5,73116E-005	...........	22,06
	26	2,97	4,20772E+000	4,20547E+000	5,57116E-005	...........	22,05
	27	3,08	4,20692E+000	4,20430E+000	5,47116E-005	...........	22,05
	28	3,19	4,20615E+000	4,20342E+000	5,65116E-005	...........	22,06
	29	3,3	4,20532E+000	4,20240E+000	6,85116E-005	...........	22,05
	30	3,41	4,20443E+000	4,20175E+000	6,07116E-005	...........	22,05
	31	3,52	4,20351E+000	4,20077E+000	6,09116E-005	...........	22,04
	32	3,63	4,20261E+000	4,20015E+000	6,05116E-005	...........	22,04
	33	3,74	4,20176E+000	4,19968E+000	5,49116E-005	...........	22,05
	34	3,85	4,20099E+000	4,19906E+000	6,41116E-005	...........	22,06
	35	3,96	4,20029E+000	4,19769E+000	7,15116E-005	...........	22,06
	36	4,07	4,19958E+000	4,19640E+000	7,39116E-005	...........	22,07
	37	4,18	4,19875E+000	4,19570E+000	6,19116E-005	...........	22,06
	38	4,29	4,19777E+000	4,19476E+000	6,59116E-005	...........	22,06
	39	4,4	4,19676E+000	4,19406E+000	5,95116E-005	...........	22,07
	40	4,51	4,19580E+000	4,19350E+000	5,57116E-005	...........	22,07
	41	4,62	4,19495E+000	4,19310E+000	5,61116E-005	...........	22,07
	42	4,73	4,19422E+000	4,19201E+000	7,41116E-005	...........	22,07
	43	4,84	4,19354E+000	4,19062E+000	6,89116E-005	...........	22,06
	44	4,95	4,19279E+000	4,18962E+000	5,25116E-005	...........	22,07
	45	5,06	4,19189E+000	4,18896E+000	6,15116E-005	...........	22,06
	46	5,17	4,19089E+000	4,18799E+000	5,81116E-005	...........	22,07
	47	5,28	4,18990E+000	4,18736E+000	5,97116E-005	...........	22,06
	48	5,39	4,18900E+000	4,18689E+000	6,13116E-005	...........	22,06
	49	5,5	4,18820E+000	4,18636E+000	5,31116E-005	...........	22,06
	50	5,61	4,18751E+000	4,18515E+000	6,93116E-005	...........	22,06
	51	5,72	4,18683E+000	4,18372E+000	6,39116E-005	...........	22,06
	52	5,83	4,18605E+000	4,18299E+000	6,09116E-005	...........	22,06
	53	5,94	4,18511E+000	4,18211E+000	6,47116E-005	...........	22,06
	54	6,05	4,18410E+000	4,18138E+000	6,29116E-005	...........	22,05
	55	6,16	4,18313E+000	4,18079E+000	5,65116E-005	...........	22,05
	56	6,27	4,18227E+000	4,18040E+000	5,83116E-005	...........	22,06
	57	6,38	4,18154E+000	4,17944E+000	5,63116E-005	...........	22,06
	58	6,49	4,18086E+000	4,17799E+000	6,87116E-005	...........	22,07
	59	6,6	4,18013E+000	4,17689E+000	6,59116E-005	...........	22,05
	60	6,71	4,17924E+000	4,17632E+000	6,83116E-005	...........	22,06
	61	6,82	4,17823E+000	4,17535E+000	7,05116E-005	...........	22,06
	62	6,93	4,17725E+000	4,17484E+000	5,21116E-005	...........	22,05
	63	7,04	4,17635E+000	4,17432E+000	6,83116E-005	...........	22,05
	64	7,15	4,17559E+000	4,17400E+000	5,71116E-005	...........	22,06
	65	7,26	4,17495E+000	4,17323E+000	6,25116E-005	...........	22,05
	66	7,37	4,17438E+000	4,17164E+000	7,57116E-005	...........	22,06
	67	7,48	4,17373E+000	4,17036E+000	6,59116E-005	...........	22,06
	68	7,59	4,17287E+000	4,16970E+000	6,93116E-005	...........	22,07
	69	7,7	4,17184E+000	4,16878E+000	6,77116E-005	...........	22,06
	70	7,81	4,17078E+000	4,16820E+000	5,85116E-005	...........	22,05
	71	7,92	4,16981E+000	4,16774E+000	5,85116E-005	...........	22,06
	72	8,03	4,16900E+000	4,16729E+000	6,29116E-005	...........	22,06
	73	8,14	4,16832E+000	4,16544E+000	6,93116E-005	...........	22,05
	74	8,25	4,16762E+000	4,16413E+000	6,17116E-005	...........	22,06
	75	8,36	4,16674E+000	4,16361E+000	6,77116E-005	...........	22,06
	76	8,47	4,16570E+000	4,16267E+000	5,47116E-005	...........	22,06
	77	8,58	4,16463E+000	4,16207E+000	5,31116E-005	...........	22,06
	78	8,69	4,16368E+000	4,16151E+000	5,53116E-005	...........	22,07
	79	8,8	4,16287E+000	4,16123E+000	5,19116E-005	...........	22,06
	80	8,91	4,16220E+000	4,16065E+000	6,55116E-005	...........	22,07
	81	9,02	4,16162E+000	4,15858E+000	7,19116E-005	...........	22,06
	82	9,13	4,16096E+000	4,15754E+000	6,85116E-005	...........	22,06
	83	9,24	4,16008E+000	4,15684E+000	6,01116E-005	...........	22,05
	84	9,35	4,15901E+000	4,15601E+000	6,11116E-005	...........	22,06
	85	9,46	4,15793E+000	4,15548E+000	6,51116E-005	...........	22,06
	86	9,57	4,15699E+000	4,15500E+000	5,29116E-005	...........	22,06
	87	9,68	4,15621E+000	4,15448E+000	5,91116E-005	...........	22,06
	88	9,79	4,15556E+000	4,15325E+000	5,63116E-005	...........	22,06
	89	9,9	4,15491E+000	4,15163E+000	6,05116E-005	...........	22,07
	90	10,01	4,15413E+000	4,15093E+000	5,27116E-005	...........	22,07
	91	10,12	4,15315E+000	4,15001E+000	6,29116E-005	...........	22,06
	92	10,23	4,15209E+000	4,14939E+000	6,65116E-005	...........	22,06
	93	10,34	4,15109E+000	4,14891E+000	6,21116E-005	...........	22,06
	94	10,45	4,15023E+000	4,14785E+000	7,43116E-005	...........	22,06
	95	10,56	4,14946E+000	4,14659E+000	7,01116E-005	...........	22,06
	96	10,67	4,14867E+000	4,14594E+000	7,05116E-005	...........	22,06
	97	10,78	4,14780E+000	4,14487E+000	6,89116E-005	...........	22,06
	98	10,89	4,14688E+000	4,14422E+000	6,67116E-005	...........	22,07
	99	11	4,14595E+000	4,14323E+000	5,83116E-005	...........	22,06
	100	11,11	4,14506E+000	4,14256E+000	6,19116E-005	...........	22,06
	101	11,22	4,14422E+000	4,14201E+000	6,33116E-005	...........	22,07
	102	11,33	4,14342E+000	4,14113E+000	5,99116E-005	...........	22,06
	103	11,44	4,14266E+000	4,14009E+000	6,29116E-005	...........	22,07
	104	11,55	4,14190E+000	4,13930E+000	6,31116E-005	...........	22,06
	105	11,66	4,14109E+000	4,13835E+000	6,15116E-005	...........	22,06
	106	11,77	4,14023E+000	4,13761E+000	5,01116E-005	...........	22,07
	107	11,88	4,13936E+000	4,13673E+000	6,79116E-005	...........	22,07
	108	11,99	4,13849E+000	4,13604E+000	6,73116E-005	...........	22,07
	109	12,1	4,13766E+000	4,13551E+000	5,31116E-005	...........	22,06
	110	12,21	4,13688E+000	4,13454E+000	5,87116E-005	...........	22,07
	111	12,32	4,13614E+000	4,13361E+000	6,65116E-005	...........	22,07
	112	12,43	4,13538E+000	4,13279E+000	6,63116E-005	...........	22,07
	113	12,54	4,13457E+000	4,13188E+000	6,73116E-005	...........	22,07
	114	12,65	4,13372E+000	4,13111E+000	6,31116E-005	...........	22,07
	115	12,76	4,13285E+000	4,13028E+000	6,51116E-005	...........	22,06
	116	12,87	4,13200E+000	4,12962E+000	5,39116E-005	...........	22,08
	117	12,98	4,13119E+000	4,12913E+000	5,89116E-005	...........	22,07
	118	13,09	4,13043E+000	4,12821E+000	6,33116E-005	...........	22,07
	119	13,2	4,12972E+000	4,12725E+000	5,95116E-005	...........	22,06
	120	13,31	4,12899E+000	4,12639E+000	7,41116E-005	...........	22,07
	121	13,42	4,12820E+000	4,12550E+000	6,99116E-005	...........	22,07
	122	13,53	4,12735E+000	4,12485E+000	5,53116E-005	...........	22,08
	123	13,64	4,12649E+000	4,12395E+000	6,07116E-005	...........	22,06
	124	13,75	4,12566E+000	4,12333E+000	5,15116E-005	...........	22,07
	125	13,86	4,12487E+000	4,12284E+000	6,89116E-005	...........	22,07
	126	13,97	4,12413E+000	4,12213E+000	5,99116E-005	...........	22,07
	127	14,08	4,12344E+000	4,12096E+000	6,49116E-005	...........	22,07
	128	14,19	4,12275E+000	4,12032E+000	6,35116E-005	...........	22,07
	129	14,3	4,12199E+000	4,11922E+000	6,33116E-005	...........	22,06
	130	14,41	4,12116E+000	4,11870E+000	7,13116E-005	...........	22,07
	131	14,52	4,12031E+000	4,11774E+000	6,83116E-005	...........	22,07
	132	14,63	4,11947E+000	4,11712E+000	7,17116E-005	...........	22,08
	133	14,74	4,11867E+000	4,11657E+000	6,05116E-005	...........	22,07
	134	14,85	4,11793E+000	4,11612E+000	5,55116E-005	...........	22,08
	135	14,96	4,11725E+000	4,11505E+000	6,93116E-005	...........	22,08
	136	15,07	4,11660E+000	4,11424E+000	7,01116E-005	...........	22,08
	137	15,18	4,11590E+000	4,11310E+000	6,59116E-005	...........	22,08
	138	15,29	4,11511E+000	4,11252E+000	7,05116E-005	...........	22,09
	139	15,4	4,11425E+000	4,11162E+000	6,09116E-005	...........	22,07
	140	15,51	4,11338E+000	4,11097E+000	6,59116E-005	...........	22,07
	141	15,62	4,11255E+000	4,11038E+000	5,61116E-005	...........	22,07
	142	15,73	4,11178E+000	4,10997E+000	6,21116E-005	...........	22,08
	143	15,84	4,11110E+000	4,10922E+000	6,15116E-005	...........	22,08
	144	15,95	4,11047E+000	4,10815E+000	6,89116E-005	...........	22,08
	145	16,06	4,10983E+000	4,10730E+000	6,93116E-005	...........	22,07
	146	16,17	4,10909E+000	4,10633E+000	5,23116E-005	...........	22,08
	147	16,28	4,10826E+000	4,10575E+000	5,55116E-005	...........	22,07
	148	16,39	4,10739E+000	4,10484E+000	5,15116E-005	...........	22,08
	149	16,5	4,10655E+000	4,10429E+000	6,85116E-005	...........	22,07
	150	16,61	4,10576E+000	4,10377E+000	5,97116E-005	...........	22,07
	151	16,72	4,10504E+000	4,10334E+000	6,59116E-005	...........	22,07
	152	16,83	4,10440E+000	4,10227E+000	6,43116E-005	...........	22,07
	153	16,94	4,10378E+000	4,10134E+000	6,53116E-005	...........	22,07
	154	17,05	4,10310E+000	4,10029E+000	6,29116E-005	...........	22,07
	155	17,16	4,10230E+000	4,09981E+000	6,77116E-005	...........	22,06
	156	17,27	4,10144E+000	4,09898E+000	6,37116E-005	...........	22,07
	157	17,38	4,10059E+000	4,09828E+000	6,63116E-005	...........	22,06
	158	17,49	4,09981E+000	4,09775E+000	6,37116E-005	...........	22,07
	159	17,6	4,09909E+000	4,09733E+000	4,99116E-005	...........	22,07
	160	17,71	4,09844E+000	4,09687E+000	5,95116E-005	...........	22,07
	161	17,82	4,09785E+000	4,09575E+000	6,33116E-005	...........	22,07
	162	17,93	4,09727E+000	4,09461E+000	6,77116E-005	...........	22,07
	163	18,04	4,09658E+000	4,09359E+000	6,43116E-005	...........	22,07
	164	18,15	4,09574E+000	4,09316E+000	6,81116E-005	...........	22,08
	165	18,26	4,09482E+000	4,09222E+000	6,83116E-005	...........	22,08
	166	18,37	4,09393E+000	4,09173E+000	7,27116E-005	...........	22,08
	167	18,48	4,09313E+000	4,09118E+000	5,67116E-005	...........	22,07
	168	18,59	4,09243E+000	4,09085E+000	6,05116E-005	...........	22,07
	169	18,7	4,09182E+000	4,09029E+000	6,51116E-005	...........	22,06
	170	18,81	4,09128E+000	4,08904E+000	7,05116E-005	...........	22,07
	171	18,92	4,09070E+000	4,08776E+000	6,71116E-005	...........	22,07
	172	19,03	4,08997E+000	4,08710E+000	6,51116E-005	...........	22,07
	173	19,14	4,08908E+000	4,08661E+000	7,25116E-005	...........	22,07
	174	19,25	4,08816E+000	4,08570E+000	6,71116E-005	...........	22,08
	175	19,36	4,08731E+000	4,08520E+000	5,03116E-005	...........	22,07
	176	19,47	4,08656E+000	4,08470E+000	5,51116E-005	...........	22,07
	177	19,58	4,08589E+000	4,08439E+000	5,59116E-005	...........	22,06
	178	19,69	4,08531E+000	4,08382E+000	5,17116E-005	...........	22,08
	179	19,8	4,08479E+000	4,08281E+000	7,09116E-005	...........	22,08
	180	19,91	4,08425E+000	4,08155E+000	6,47116E-005	...........	22,07
	181	20,02	4,08358E+000	4,08072E+000	7,07116E-005	...........	22,07
	182	20,13	4,08275E+000	4,08026E+000	6,27116E-005	...........	22,08
	183	20,24	4,08185E+000	4,07937E+000	6,65116E-005	...........	22,08
	184	20,35	4,08100E+000	4,07893E+000	7,25116E-005	...........	22,07
	185	20,46	4,08024E+000	4,07848E+000	5,95116E-005	...........	22,07
	186	20,57	4,07958E+000	4,07804E+000	5,63116E-005	...........	22,06
	187	20,68	4,07901E+000	4,07730E+000	6,79116E-005	...........	22,07
	188	20,79	4,07847E+000	4,07614E+000	7,01116E-005	...........	22,09
	189	20,9	4,07787E+000	4,07498E+000	7,61116E-005	...........	22,07
	190	21,01	4,07711E+000	4,07435E+000	7,63116E-005	...........	22,08
	191	21,12	4,07623E+000	4,07399E+000	7,41116E-005	...........	22,08
	192	21,23	4,07535E+000	4,07322E+000	6,73116E-005	...........	22,09
	193	21,34	4,07458E+000	4,07270E+000	7,09116E-005	...........	22,08
	194	21,45	4,07392E+000	4,07226E+000	7,19116E-005	...........	22,08
	195	21,56	4,07334E+000	4,07180E+000	6,99116E-005	...........	22,07
	196	21,67	4,07280E+000	4,07154E+000	5,67116E-005	...........	22,08
	197	21,78	4,07232E+000	4,07083E+000	7,07116E-005	...........	22,09
	198	21,89	4,07186E+000	4,06960E+000	7,55116E-005	...........	22,08
	199	22	4,07130E+000	4,06829E+000	6,87116E-005	...........	22,08
	200	22,11	4,07057E+000	4,06779E+000	8,61116E-005	...........	22,08
	201	22,22	4,06967E+000	4,06708E+000	5,33116E-005	...........	22,07
	202	22,33	4,06874E+000	4,06637E+000	6,73116E-005	...........	22,09
	203	22,44	4,06789E+000	4,06596E+000	6,49116E-005	...........	22,08
	204	22,55	4,06717E+000	4,06551E+000	6,59116E-005	...........	22,08
	205	22,66	4,06655E+000	4,06527E+000	6,01116E-005	...........	22,08
