EXPLAIN
TAG	EISPOT
TITLE	LABEL	Potentiostatic EIS	Test Identifier
DATE	LABEL	14/7/2026	Date
TIME	LABEL	3:19:18	Time
NOTES	NOTES	1	Notes...
	
PSTAT	PSTAT	REF3000-46189	Potentiostat
VDC	POTEN	1,67642E+000	F	Last Measured Potential (V)
FREQINIT	QUANT	1,00000E+005	Initial Freq. (Hz)
FREQFINAL	QUANT	1,00000E-001	Final Freq. (Hz)
PTSPERDEC	QUANT	1,00000E+001	Points/decade
VAC	QUANT	5,00000E+000	AC Voltage (mV rms)
AREA	QUANT	2,50000E+001	Sample Area (cm^2)
SPEED	SELECTOR	1	Optimize for:
DRIFTCOR	SELECTOR	0	Drift Correction
THD	SELECTOR	0	THD
ZGUESS	QUANT	2,00000E-002	Estimated Z (ohms)
EOC	QUANT	0,6499035	Open Circuit (V)
SEQUENCER	TOGGLE	TRUE	Run as Sequence
PSTATMODEL	IQUANT	6	Pstat Model
PSTATSECTION	LABEL	REF30K-46189	Pstat Section
PSTATSERIALNO	LABEL	46189	Pstat Serial Number
CTRLMODE	IQUANT	1	Control Mode
ELECTROMETER	IQUANT	0	RE=0 or CS=1
IESTAB	IQUANT	0	I/E Stability
CASPEED	IQUANT	3	Control Amp Speed
CONVENTION	IQUANT	1	Current Convention
ICHRANGE	IQUANT	2	Ich Range
ICHRANGEMODE	TOGGLE	F	Ich Auto Range
ICHOFFSETENABLE	TOGGLE	T	Ich Offset Enable
ICHOFFSET	QUANT	0	Ich Offset (V)
ICHFILTER	IQUANT	3	Ich Filter
VCHRANGE	IQUANT	2	Vch Range
VCHRANGEMODE	TOGGLE	F	Vch Auto Range
VCHOFFSETENABLE	TOGGLE	T	Vch Offset Enable
VCHOFFSET	QUANT	0	Vch Offset (V)
VCHFILTER	IQUANT	3	Vch Filter
ACHRANGE	IQUANT	2	Ach Range
ACHOFFSETENABLE	TOGGLE	F	Ach Offset Enable
ACHOFFSET	QUANT	0	Ach Offset (V)
ACHFILTER	IQUANT	1	Ach Filter
IERANGELOWERLIMIT	IQUANT	13	I/E Range Lower Limit
IERANGEMODE	TOGGLE	F	I/E AutoRange
IERANGE	IQUANT	13	I/E Range
POSFEEDENABLE	TOGGLE	F	Positive Feedback IR Comp
POSFEEDRESISTANCE	QUANT	0	Positive Feedback Resistance (ohm)
ACHSELECT	IQUANT	4	Ach Select
SENSECABLEID	IQUANT	14	Sense Cable ID
PWRCABLEID	IQUANT	8	Power Cable ID
DCCALDATE	LABEL	10/1/2025	DC Calibration Date
ACCALDATE	LABEL	10/1/2025	AC Calibration Date
THERMOSELECT	IQUANT	1	Thermo Select
FRAMEWORKVERSION	LABEL	7.10.1	Framework Version
INSTRUMENTVERSION	LABEL	4.80	Instrument Version
COMMVERSION	LABEL	5.10	Communications Version
CPUPLDVERSION	LABEL	6.00	CPU PLD Version
CTRLPLDVERSION	LABEL	3.21	CTRL PLD Version
PSTATPLDVERSION	LABEL	0.00	PSTAT PLD Version
BOOSTERDCCALDATE	LABEL	10/1/2025	Booster DC Calibration Date
ZCURVE	TABLE
	Pt	Time	Freq	Zreal	Zimag	Zsig	Zmod	Zphz	Idc	Vdc	IERange	Imod	Vmod	Temp
	#	s	Hz	ohm	ohm	V	ohm	°	A	V	#	A	V	°C
	0	5	100078,1	0,0136659	0,0067082	1	0,0152235	26,145	8,582774	1,674144	13	0,3298674	0,0050005	63,22697
	1	6	79453,13	0,013428	0,0055111	1	0,014515	22,31427	8,580379	1,674153	13	0,445687	0,0064478	63,22198
	2	9	63140,62	0,0132201	0,004528	1	0,0139741	18,90675	8,57959	1,674155	13	0,4528229	0,0063105	63,23162
	3	10	50203,12	0,013041	0,003721	1	0,0135615	15,92522	8,578517	1,67416	13	0,4577475	0,0061939	63,23462
	4	12	39890,62	0,0128935	0,0030438	1	0,013248	13,28294	8,578868	1,674138	13	0,4702159	0,0062187	63,23926
	5	14	31640,63	0,0127704	0,0024867	1	0,0130102	11,01901	8,57948	1,674152	13	0,4706377	0,0061154	63,25022
	6	16	25171,88	0,0126727	0,0020302	1	0,0128343	9,101685	8,580051	1,674148	13	0,4693573	0,0060186	63,24586
	7	18	20015,62	0,0125941	0,0016594	1	0,012703	7,505903	8,582877	1,674155	13	0,465946	0,0059154	63,24992
	8	20	15890,62	0,0125295	0,0013469	1	0,0126017	6,135747	8,579518	1,674162	13	0,4604654	0,0058004	63,25623
	9	21	12609,38	0,0124836	0,0010876	1	0,0125309	4,979218	8,580992	1,674164	13	0,4538881	0,0056862	63,25296
	10	23	10078,13	0,012443	0,0008817	1	0,0124742	4,053275	8,58073	1,674157	13	0,4416237	0,005508	63,24736
	11	24	8015,625	0,0124117	0,0007088	1	0,0124319	3,268245	8,583349	1,674142	13	0,4345542	0,0054018	63,25883
	12	26	6328,125	0,0123897	0,0005571	1	0,0124022	2,574729	8,576921	1,674135	13	0,4276034	0,0053029	63,25282
	13	28	5015,625	0,0123712	0,0004336	1	0,0123788	2,007543	8,575453	1,674143	13	0,4212595	0,0052145	63,25656
	14	29	3984,375	0,0123576	0,0003306	1	0,012362	1,532255	8,574423	1,674156	13	0,41598	0,0051422	63,2646
	15	31	3170,956	0,0123484	0,0002382	1	0,0123507	1,105244	8,57609	1,67416	13	0,4125338	0,005095	63,2578
	16	32	2527,573	0,0123427	0,0001598	1	0,0123437	0,7418691	8,575105	1,674148	13	0,4096906	0,0050571	63,25764
	17	34	1976,103	0,0123444	8,035808E-005	1	0,0123446	0,3729726	8,573015	1,674158	13	0,4079925	0,0050365	63,24651
	18	35	1577,524	0,0123533	1,257288E-005	1	0,0123534	0,058314	8,570012	1,674138	13	0,4068328	0,0050257	63,25336
	19	37	1265,625	0,0123637	-4,664777E-005	1	0,0123637	-0,2161744	8,571912	1,674137	13	0,40549	0,0050134	63,24498
	20	39	998,264	0,0123803	-0,0001115	1	0,0123808	-0,5159103	8,570282	1,674146	13	0,4043261	0,0050059	63,24949
	21	40	796,875	0,0124098	-0,0001664	1	0,0124109	-0,7680305	8,56653	1,674154	13	0,403327	0,0050056	63,25376
	22	42	627,7902	0,0124417	-0,0002265	1	0,0124437	-1,043072	8,568338	1,674154	13	0,4017802	0,0049996	63,25185
	23	43	505,5147	0,0124733	-0,0002837	1	0,0124765	-1,302839	8,568641	1,674154	13	0,3944764	0,0049597	63,24434
	24	45	397,9953	0,0125182	-0,0003439	1	0,0125229	-1,573415	8,565507	1,674151	13	0,4006045	0,0050394	63,23971
	25	47	315,5048	0,0125649	-0,000406	1	0,0125714	-1,850905	8,568064	1,674148	13	0,3970521	0,005005	63,25759
	26	48	252,4038	0,0126183	-0,0004689	1	0,012627	-2,1283	8,567307	1,674132	13	0,395259	0,0049993	63,251
	27	50	198,6229	0,0126845	-0,0005443	1	0,0126962	-2,45689	8,568945	1,674129	13	0,3930561	0,0049953	63,25879
	28	51	158,3615	0,0127578	-0,0006164	1	0,0127727	-2,76626	8,565938	1,674145	13	0,3908019	0,0049948	63,25122
	29	53	125,558	0,0128448	-0,0007007	1	0,0128639	-3,122288	8,569229	1,674151	13	0,3883237	0,0049973	63,26276
	30	54	100,4464	0,0129415	-0,0007868	1	0,0129654	-3,479089	8,567566	1,674143	13	0,3851255	0,0049945	63,25879
	31	56	79,00281	0,0130616	-0,0008805	1	0,0130913	-3,856328	8,566762	1,674151	13	0,3814536	0,0049945	63,23526
	32	58	63,3446	0,0131895	-0,0009752	1	0,0132255	-4,228446	8,56471	1,674144	13	0,3774258	0,0049921	63,25043
	33	59	50,22321	0,0133431	-0,0010736	1	0,0133862	-4,600287	8,567852	1,674155	13	0,3723042	0,0049841	63,25043
	34	61	38,42213	0,0135482	-0,0011962	1	0,0136009	-5,045673	8,564535	1,674148	13	0,364523	0,004958	63,25177
	35	62	31,25	0,0137225	-0,001283	1	0,0137824	-5,341244	8,566496	1,674148	13	0,3569835	0,0049202	63,24316
	36	64	24,93351	0,0139434	-0,0013718	1	0,0140108	-5,618989	8,563578	1,674144	13	0,3438948	0,0048183	63,23922
	37	66	19,86229	0,0142464	-0,0014233	1	0,0143173	-5,705092	8,561309	1,674137	13	0,37809	0,0054133	63,23524
	38	67	15,625	0,0144655	-0,0014832	1	0,0145413	-5,854368	8,563493	1,674152	13	0,3435309	0,0049954	63,23896
	39	69	12,40079	0,0147984	-0,0015074	1	0,014875	-5,816053	8,563946	1,674151	13	0,3360953	0,0049994	63,2294
	40	70	9,93114	0,015076	-0,001478	1	0,0151482	-5,599247	8,559576	1,674158	13	0,3300361	0,0049995	63,23693
	41	72	7,944915	0,0153451	-0,0014018	1	0,015409	-5,21959	8,556688	1,67415	13	0,3241969	0,0049956	63,23879
	42	74	6,317385	0,0155531	-0,0013155	1	0,0156087	-4,834568	8,558606	1,674143	13	0,3206908	0,0050056	63,22361
	43	76	5,008013	0,0157117	-0,0011646	1	0,0157548	-4,239161	8,562536	1,674148	13	0,3173392	0,0049996	63,21878
	44	79	3,945707	0,0159596	-0,0010398	1	0,0159935	-3,727495	8,555885	1,674143	13	0,3125195	0,0049983	63,22811
	45	81	3,158693	0,0161257	-0,0008879	1	0,0161502	-3,151477	8,55448	1,674142	13	0,3099772	0,0050062	63,21536
	46	84	2,504006	0,0162599	-0,0007778	1	0,0162785	-2,738663	8,553483	1,674147	13	0,2975088	0,0048496	63,20612
	47	88	1,998082	0,0163265	-0,000696	1	0,0163413	-2,441023	8,549517	1,674149	13	0,3105505	0,0050794	63,20992
	48	92	1,584686	0,0163909	-0,0005505	1	0,0164001	-1,92363	8,548222	1,67415	13	0,3074298	0,0050448	63,20098
	49	96	1,266892	0,0164423	-0,0004855	1	0,0164494	-1,691444	8,552295	1,674153	13	0,3043463	0,0050082	63,19474
	50	104	0,999041	0,0164866	-0,0004275	1	0,0164921	-1,485471	8,547676	1,674148	13	0,3031778	0,0050012	63,18036
	51	110	0,7923428	0,0165297	-0,0003815	1	0,0165341	-1,322273	8,544089	1,674155	13	0,3030421	0,0050113	63,16993
	52	117	0,6334459	0,0165169	-0,0003066	1	0,0165197	-1,063426	8,541142	1,674151	13	0,3025765	0,0049989	63,14832
	53	126	0,5040323	0,0166177	-0,0002663	1	0,0166199	-0,9179696	8,535951	1,674147	13	0,3009814	0,0050026	63,12206
	54	136	0,400641	0,0165912	-0,0002502	1	0,0165931	-0,8638967	8,531117	1,674146	13	0,3014056	0,0050014	63,11336
	55	150	0,316723	0,0165726	-0,0002322	1	0,0165742	-0,8027759	8,533269	1,674146	13	0,3018131	0,0050024	63,09026
	56	167	0,2520161	0,0165874	-0,0001961	1	0,0165886	-0,6771616	8,520307	1,67415	13	0,3011671	0,004996	63,0433
	57	185	0,2003205	0,0167397	-0,000178	1	0,0167407	-0,6091899	8,522429	1,674146	13	0,2988599	0,0050032	63,07795
	58	211	0,1588983	0,0166341	-0,0001996	1	0,0166353	-0,6876044	8,516322	1,674142	13	0,3005422	0,0049997	63,03737
	59	243	0,1260081	0,0166921	-0,0001608	1	0,0166929	-0,5518876	8,510386	1,674146	13	0,2995571	0,0050005	62,97797
	60	281	0,1001603	0,0166798	-0,0002318	1	0,0166814	-0,7962125	8,500915	1,674149	13	0,2996775	0,0049991	62,97142
