EXPLAIN
TAG	EISPOT
TITLE	LABEL	Potentiostatic EIS	Test Identifier
DATE	LABEL	26/6/2026	Date
TIME	LABEL	10:41:26	Time
NOTES	NOTES	1	Notes...
	
PSTAT	PSTAT	REF3000-46189	Potentiostat
VDC	POTEN	1,80439E+000	F	Last Measured Potential (V)
FREQINIT	QUANT	1,00000E+005	Initial Freq. (Hz)
FREQFINAL	QUANT	1,00000E-001	Final Freq. (Hz)
PTSPERDEC	QUANT	1,00000E+001	Points/decade
VAC	QUANT	5,00000E+000	AC Voltage (mV rms)
AREA	QUANT	2,50000E+001	Sample Area (cm^2)
SPEED	SELECTOR	1	Optimize for:
DRIFTCOR	SELECTOR	0	Drift Correction
THD	SELECTOR	0	THD
ZGUESS	QUANT	2,00000E-002	Estimated Z (ohms)
EOC	QUANT	0,6522886	Open Circuit (V)
SEQUENCER	TOGGLE	TRUE	Run as Sequence
PSTATMODEL	IQUANT	6	Pstat Model
PSTATSECTION	LABEL	REF30K-46189	Pstat Section
PSTATSERIALNO	LABEL	46189	Pstat Serial Number
CTRLMODE	IQUANT	1	Control Mode
ELECTROMETER	IQUANT	0	RE=0 or CS=1
IESTAB	IQUANT	0	I/E Stability
CASPEED	IQUANT	3	Control Amp Speed
CONVENTION	IQUANT	1	Current Convention
ICHRANGE	IQUANT	2	Ich Range
ICHRANGEMODE	TOGGLE	F	Ich Auto Range
ICHOFFSETENABLE	TOGGLE	T	Ich Offset Enable
ICHOFFSET	QUANT	0	Ich Offset (V)
ICHFILTER	IQUANT	3	Ich Filter
VCHRANGE	IQUANT	2	Vch Range
VCHRANGEMODE	TOGGLE	F	Vch Auto Range
VCHOFFSETENABLE	TOGGLE	T	Vch Offset Enable
VCHOFFSET	QUANT	0	Vch Offset (V)
VCHFILTER	IQUANT	3	Vch Filter
ACHRANGE	IQUANT	2	Ach Range
ACHOFFSETENABLE	TOGGLE	F	Ach Offset Enable
ACHOFFSET	QUANT	0	Ach Offset (V)
ACHFILTER	IQUANT	1	Ach Filter
IERANGELOWERLIMIT	IQUANT	13	I/E Range Lower Limit
IERANGEMODE	TOGGLE	F	I/E AutoRange
IERANGE	IQUANT	13	I/E Range
POSFEEDENABLE	TOGGLE	F	Positive Feedback IR Comp
POSFEEDRESISTANCE	QUANT	0	Positive Feedback Resistance (ohm)
ACHSELECT	IQUANT	4	Ach Select
SENSECABLEID	IQUANT	14	Sense Cable ID
PWRCABLEID	IQUANT	8	Power Cable ID
DCCALDATE	LABEL	10/1/2025	DC Calibration Date
ACCALDATE	LABEL	10/1/2025	AC Calibration Date
THERMOSELECT	IQUANT	1	Thermo Select
FRAMEWORKVERSION	LABEL	7.10.1	Framework Version
INSTRUMENTVERSION	LABEL	4.80	Instrument Version
COMMVERSION	LABEL	5.10	Communications Version
CPUPLDVERSION	LABEL	6.00	CPU PLD Version
CTRLPLDVERSION	LABEL	3.21	CTRL PLD Version
PSTATPLDVERSION	LABEL	0.00	PSTAT PLD Version
BOOSTERDCCALDATE	LABEL	10/1/2025	Booster DC Calibration Date
ZCURVE	TABLE
	Pt	Time	Freq	Zreal	Zimag	Zsig	Zmod	Zphz	Idc	Vdc	IERange	Imod	Vmod	Temp
	#	s	Hz	ohm	ohm	V	ohm	°	A	V	#	A	V	°C
	0	4	100078,1	0,0136113	0,0067131	1	0,0151767	26,25257	17,47289	1,801574	13	0,330775	0,0049988	64,07748
	1	6	79453,13	0,0133604	0,0055132	1	0,0144532	22,42337	17,46884	1,80158	13	0,4538569	0,0065381	64,0808
	2	7	63140,62	0,0131536	0,0045304	1	0,0139119	19,00484	17,46592	1,80158	13	0,4587303	0,0063644	64,07231
	3	9	50203,12	0,0129652	0,0037204	1	0,0134884	16,01118	17,45971	1,801575	13	0,4615093	0,0062112	64,07665
	4	11	39890,62	0,0128163	0,0030474	1	0,0131736	13,37515	17,46066	1,801589	13	0,471559	0,0062015	64,08028
	5	13	31640,63	0,0126916	0,0024934	1	0,0129342	11,11461	17,46552	1,801584	13	0,46993	0,0060706	64,07237
	6	14	25171,88	0,0125967	0,0020372	1	0,0127604	9,186774	17,46304	1,801586	13	0,4661108	0,0059425	64,0857
	7	16	20015,62	0,0125132	0,001663	1	0,0126232	7,570096	17,4641	1,801585	13	0,4608913	0,0058145	64,08003
	8	18	15890,62	0,0124495	0,0013525	1	0,0125227	6,200382	17,46521	1,801588	13	0,4550056	0,0056957	64,08509
	9	19	12609,38	0,0123995	0,0010939	1	0,0124476	5,041693	17,46406	1,801576	13	0,4449589	0,0055373	64,09434
	10	21	10078,13	0,0123589	0,0008887	1	0,0123908	4,112734	17,4643	1,80158	13	0,4355412	0,0053958	64,09042
	11	22	8015,625	0,012332	0,0007146	1	0,0123527	3,316352	17,46441	1,80159	13	0,4290871	0,0052998	64,09494
	12	24	6328,125	0,0123032	0,0005699	1	0,0123163	2,652297	17,46267	1,801565	13	0,4237019	0,0052181	64,10011
	13	26	5015,625	0,0122863	0,0004467	1	0,0122945	2,081997	17,46389	1,801568	13	0,4191271	0,0051527	64,09795
	14	27	3984,375	0,0122704	0,0003488	1	0,0122754	1,628325	17,46306	1,801583	13	0,4154133	0,0050992	64,10378
	15	29	3170,956	0,0122557	0,0002599	1	0,0122585	1,214828	17,46178	1,801573	13	0,4129613	0,0050622	64,10303
	16	31	2527,573	0,0122494	0,0001816	1	0,0122508	0,8495354	17,46281	1,801583	13	0,4116729	0,0050433	64,11398
	17	32	1976,103	0,0122477	0,000105	1	0,0122481	0,4913187	17,46371	1,801576	13	0,4101562	0,0050236	64,0937
	18	34	1577,524	0,0122541	4,380778E-005	1	0,0122542	0,2048283	17,46081	1,801569	13	0,4092222	0,0050147	64,09521
	19	35	1265,625	0,0122719	-8,06229E-007	1	0,0122719	-0,0037642	17,46027	1,801571	13	0,4090659	0,00502	64,08952
	20	37	998,264	0,0122808	-6,822442E-005	1	0,012281	-0,3182954	17,45869	1,801557	13	0,4067934	0,0049958	64,08912
	21	39	796,875	0,0123059	-0,0001195	1	0,0123065	-0,5565061	17,45873	1,801587	13	0,4066372	0,0050043	64,08937
	22	40	627,7902	0,0123311	-0,000172	1	0,0123323	-0,7991507	17,45893	1,801583	13	0,4051105	0,004996	64,08238
	23	42	505,5147	0,0123577	-0,0002211	1	0,0123597	-1,025121	17,45815	1,801555	13	0,3981484	0,004959	64,06809
	24	43	397,9953	0,0123953	-0,0002693	1	0,0123982	-1,244694	17,45657	1,801541	13	0,4046612	0,0050397	64,06873
	25	45	315,5048	0,01244	-0,000317	1	0,012444	-1,459488	17,45609	1,801571	13	0,4011688	0,0050056	64,05897
	26	46	252,4038	0,0124839	-0,0003651	1	0,0124892	-1,675031	17,45843	1,801553	13	0,3994814	0,0049975	64,0629
	27	48	198,6229	0,0125437	-0,0004173	1	0,0125506	-1,905625	17,4592	1,801579	13	0,3977166	0,0049966	64,0562
	28	49	158,3615	0,0126053	-0,0004684	1	0,012614	-2,128053	17,45729	1,801567	13	0,3957669	0,0049954	64,05719
	29	51	125,558	0,0126778	-0,0005249	1	0,0126887	-2,371005	17,45731	1,801569	13	0,3935196	0,0049952	64,0562
	30	53	100,4464	0,0127588	-0,0005771	1	0,0127719	-2,589746	17,45549	1,801566	13	0,3911658	0,0049972	64,05136
	31	54	79,00281	0,012857	-0,0006351	1	0,0128727	-2,828096	17,45593	1,801562	13	0,3878316	0,0049932	64,04164
	32	56	63,3446	0,0129641	-0,0006866	1	0,0129823	-3,031667	17,45255	1,80156	13	0,3844732	0,0049918	64,02013
	33	58	50,22321	0,0130858	-0,0007293	1	0,0131061	-3,189937	17,44774	1,801554	13	0,3802606	0,004984	64,02714
	34	59	38,42213	0,0132473	-0,000772	1	0,0132698	-3,335047	17,45263	1,801576	13	0,373565	0,0049573	64,02055
	35	61	31,25	0,0133754	-0,0007884	1	0,0133986	-3,37338	17,45553	1,801573	13	0,3675154	0,0049243	64,0257
	36	63	24,93351	0,0135197	-0,0007844	1	0,0135424	-3,320421	17,453	1,801558	13	0,3561197	0,0048228	64,02835
	37	64	19,86229	0,0136513	-0,0007871	1	0,0136739	-3,299936	17,44744	1,801565	13	0,3946359	0,0053963	64,02734
	38	65	15,625	0,0139007	-0,0007625	1	0,0139216	-3,139671	17,44863	1,801522	13	0,3585666	0,0049918	64,03481
	39	67	12,40079	0,0139289	-0,000671	1	0,0139451	-2,758152	17,45205	1,801573	13	0,3589115	0,0050051	64,03119
	40	68	9,93114	0,01407	-0,0006118	1	0,0140832	-2,489793	17,45047	1,801575	13	0,3553925	0,0050051	64,02785
	41	70	7,944915	0,0141261	-0,0005406	1	0,0141364	-2,191667	17,45185	1,801569	13	0,3538575	0,0050023	64,02428
	42	72	6,317385	0,0142079	-0,0005164	1	0,0142173	-2,081462	17,44692	1,801556	13	0,3512097	0,0049932	64,01514
	43	74	5,008013	0,0141867	-0,000481	1	0,0141949	-1,941935	17,4473	1,80156	13	0,3524277	0,0050027	64,01666
	44	77	3,945707	0,0143198	-0,000404	1	0,0143255	-1,61587	17,44209	1,801556	13	0,3491128	0,0050012	64,01453
	45	80	3,158693	0,0143764	-0,0003468	1	0,0143806	-1,381912	17,44623	1,80156	13	0,3476027	0,0049987	64,01821
	46	84	2,504006	0,0143967	-0,0003528	1	0,014401	-1,40396	17,44604	1,801569	13	0,3359493	0,0048446	64,02392
	47	88	1,998082	0,0144541	-0,0003278	1	0,0144578	-1,299046	17,44567	1,801564	13	0,3517263	0,0050898	64,02632
	48	93	1,584686	0,0144611	-0,0002762	1	0,0144638	-1,094046	17,44398	1,801563	13	0,3483239	0,005041	64,01408
	49	97	1,266892	0,0145172	-0,0002862	1	0,01452	-1,129547	17,4449	1,801568	13	0,3450812	0,0050125	64,01778
	50	105	0,999041	0,014548	-0,0002231	1	0,0145497	-0,878717	17,44545	1,801562	13	0,3439731	0,0050059	64,0201
	51	111	0,7923428	0,0145574	-0,0002119	1	0,0145589	-0,8339866	17,4438	1,801566	13	0,3436475	0,0050039	64,01511
	52	118	0,6334459	0,0146371	-0,0001775	1	0,0146382	-0,6949347	17,44172	1,80156	13	0,3419735	0,0050063	64,00454
	53	127	0,5040323	0,0146049	-0,0001968	1	0,0146063	-0,7720381	17,43305	1,801568	13	0,3423093	0,0050002	63,97852
	54	137	0,400641	0,0146142	-0,0001536	1	0,014615	-0,6023064	17,42927	1,801565	13	0,3419105	0,0049972	63,9355
	55	151	0,316723	0,0146298	-0,0001569	1	0,0146306	-0,6144943	17,41528	1,801564	13	0,3417618	0,0050003	63,89301
	56	165	0,2520161	0,014688	-0,0001672	1	0,014689	-0,652028	17,40661	1,801563	13	0,340546	0,0050024	63,85136
	57	186	0,2003205	0,0147212	-0,0001663	1	0,0147221	-0,6470422	17,4066	1,801563	13	0,3395074	0,0049983	63,86449
	58	208	0,1588983	0,0146798	-0,0001446	1	0,0146805	-0,5644941	17,40257	1,801563	13	0,3407272	0,0050021	63,77816
	59	234	0,1260081	0,014797	-0,0001455	1	0,0147977	-0,5635069	17,38707	1,801566	13	0,3379983	0,0050016	63,7631
	60	264	0,1001603	0,0147786	-0,000167	1	0,0147795	-0,6474851	17,3856	1,801563	13	0,3381983	0,0049984	63,72999
