EXPLAIN
TAG	EISPOT
TITLE	LABEL	Potentiostatic EIS	Test Identifier
DATE	LABEL	12/8/2026	Date
TIME	LABEL	20:48:08	Time
NOTES	NOTES	1	Notes...
	
PSTAT	PSTAT	REF3000-46189	Potentiostat
VDC	POTEN	1,67293E+000	F	Last Measured Potential (V)
FREQINIT	QUANT	1,00000E+005	Initial Freq. (Hz)
FREQFINAL	QUANT	1,00000E-001	Final Freq. (Hz)
PTSPERDEC	QUANT	1,00000E+001	Points/decade
VAC	QUANT	5,00000E+000	AC Voltage (mV rms)
AREA	QUANT	2,50000E+001	Sample Area (cm^2)
SPEED	SELECTOR	1	Optimize for:
DRIFTCOR	SELECTOR	0	Drift Correction
THD	SELECTOR	0	THD
ZGUESS	QUANT	2,00000E-002	Estimated Z (ohms)
EOC	QUANT	0,7480813	Open Circuit (V)
SEQUENCER	TOGGLE	TRUE	Run as Sequence
PSTATMODEL	IQUANT	6	Pstat Model
PSTATSECTION	LABEL	REF30K-46189	Pstat Section
PSTATSERIALNO	LABEL	46189	Pstat Serial Number
CTRLMODE	IQUANT	1	Control Mode
ELECTROMETER	IQUANT	0	RE=0 or CS=1
IESTAB	IQUANT	0	I/E Stability
CASPEED	IQUANT	3	Control Amp Speed
CONVENTION	IQUANT	1	Current Convention
ICHRANGE	IQUANT	2	Ich Range
ICHRANGEMODE	TOGGLE	F	Ich Auto Range
ICHOFFSETENABLE	TOGGLE	T	Ich Offset Enable
ICHOFFSET	QUANT	0	Ich Offset (V)
ICHFILTER	IQUANT	3	Ich Filter
VCHRANGE	IQUANT	2	Vch Range
VCHRANGEMODE	TOGGLE	F	Vch Auto Range
VCHOFFSETENABLE	TOGGLE	T	Vch Offset Enable
VCHOFFSET	QUANT	0	Vch Offset (V)
VCHFILTER	IQUANT	3	Vch Filter
ACHRANGE	IQUANT	2	Ach Range
ACHOFFSETENABLE	TOGGLE	F	Ach Offset Enable
ACHOFFSET	QUANT	0	Ach Offset (V)
ACHFILTER	IQUANT	1	Ach Filter
IERANGELOWERLIMIT	IQUANT	13	I/E Range Lower Limit
IERANGEMODE	TOGGLE	F	I/E AutoRange
IERANGE	IQUANT	13	I/E Range
POSFEEDENABLE	TOGGLE	F	Positive Feedback IR Comp
POSFEEDRESISTANCE	QUANT	0	Positive Feedback Resistance (ohm)
ACHSELECT	IQUANT	4	Ach Select
SENSECABLEID	IQUANT	14	Sense Cable ID
PWRCABLEID	IQUANT	8	Power Cable ID
DCCALDATE	LABEL	10/1/2025	DC Calibration Date
ACCALDATE	LABEL	10/1/2025	AC Calibration Date
THERMOSELECT	IQUANT	1	Thermo Select
FRAMEWORKVERSION	LABEL	7.10.1	Framework Version
INSTRUMENTVERSION	LABEL	4.80	Instrument Version
COMMVERSION	LABEL	5.10	Communications Version
CPUPLDVERSION	LABEL	6.00	CPU PLD Version
CTRLPLDVERSION	LABEL	3.21	CTRL PLD Version
PSTATPLDVERSION	LABEL	0.00	PSTAT PLD Version
BOOSTERDCCALDATE	LABEL	10/1/2025	Booster DC Calibration Date
ZCURVE	TABLE
	Pt	Time	Freq	Zreal	Zimag	Zsig	Zmod	Zphz	Idc	Vdc	IERange	Imod	Vmod	Temp
	#	s	Hz	ohm	ohm	V	ohm	°	A	V	#	A	V	°C
	0	4	100078,1	0,0133821	0,0068535	1	0,015035	27,11866	8,543432	1,670528	13	0,3340658	0,0050014	63,42442
	1	6	79453,13	0,0131421	0,0056324	1	0,0142982	23,19898	8,541677	1,670538	13	0,4518532	0,0064394	63,42429
	2	8	63140,62	0,0129282	0,0046305	1	0,0137324	19,70604	8,542104	1,670529	13	0,4601429	0,0063016	63,42254
	3	9	50203,12	0,0127457	0,0038035	1	0,0133012	16,61594	8,540184	1,670532	13	0,4653926	0,0061765	63,41322
	4	11	39890,62	0,0125877	0,0031137	1	0,0129671	13,89386	8,542226	1,670537	13	0,4797581	0,0062104	63,43
	5	12	31640,63	0,0124689	0,0025455	1	0,012726	11,53851	8,543964	1,670543	13	0,4814531	0,0061193	63,42475
	6	14	25171,88	0,0123634	0,0020811	1	0,0125374	9,55507	8,543055	1,670523	13	0,4805441	0,0060194	63,43231
	7	16	20015,62	0,0122803	0,0016977	1	0,0123971	7,871182	8,543398	1,670529	13	0,4786137	0,0059299	63,42469
	8	18	15890,62	0,0122171	0,0013781	1	0,0122946	6,43585	8,545732	1,670522	13	0,4735731	0,0058201	63,43534
	9	19	12609,38	0,0121635	0,0011173	1	0,0122147	5,248099	8,546346	1,670543	13	0,4654473	0,0056839	63,42912
	10	21	10078,13	0,0121233	0,0009073	1	0,0121572	4,279995	8,547397	1,670535	13	0,4566471	0,0055506	63,43253
	11	22	8015,625	0,0120937	0,000728	1	0,0121156	3,445049	8,544532	1,670536	13	0,4471883	0,0054174	63,43919
	12	24	6328,125	0,0120711	0,0005724	1	0,0120847	2,715111	8,542909	1,670518	13	0,4399851	0,0053167	63,43104
	13	26	5015,625	0,0120499	0,0004466	1	0,0120582	2,122671	8,548311	1,670546	13	0,4333757	0,0052255	63,44571
	14	27	3984,375	0,0120397	0,0003481	1	0,0120447	1,656083	8,543007	1,67053	13	0,4280816	0,005156	63,45142
	15	29	3170,956	0,0120272	0,0002524	1	0,0120298	1,202447	8,54114	1,670532	13	0,4238222	0,0050984	63,44498
	16	30	2527,573	0,012025	0,0001711	1	0,0120262	0,8151937	8,540348	1,670524	13	0,420786	0,0050604	63,4589
	17	32	1976,103	0,0120201	9,10889E-005	1	0,0120204	0,4341832	8,5363	1,670521	13	0,4195131	0,0050427	63,45682
	18	33	1577,524	0,0120272	2,117052E-005	1	0,0120272	0,100853	8,538588	1,670542	13	0,4175743	0,0050222	63,45125
	19	35	1265,625	0,0120369	-3,851894E-005	1	0,012037	-0,1833494	8,539103	1,670527	13	0,4165952	0,0050145	63,44713
	20	37	998,264	0,0120581	-0,0000996	1	0,0120585	-0,4734626	8,537599	1,670543	13	0,415646	0,0050121	63,44687
	21	38	796,875	0,012076	-0,0001563	1	0,012077	-0,7413363	8,536881	1,670528	13	0,4140193	0,0050001	63,43988
	22	40	627,7902	0,0121088	-0,0002128	1	0,0121107	-1,006609	8,537096	1,670535	13	0,412956	0,0050012	63,44057
	23	41	505,5147	0,0121435	-0,0002765	1	0,0121467	-1,304297	8,538465	1,670525	13	0,4052048	0,00496	63,44531
	24	43	397,9953	0,0121837	-0,0003363	1	0,0121883	-1,580992	8,537828	1,670522	13	0,4114821	0,0050379	63,44266
	25	45	315,5048	0,0122322	-0,0003979	1	0,0122387	-1,863142	8,537813	1,670531	13	0,4079676	0,0050065	63,43938
	26	46	252,4038	0,0122863	-0,0004621	1	0,012295	-2,154126	8,537014	1,670522	13	0,4059548	0,0049995	63,44761
	27	48	198,6229	0,0123525	-0,0005358	1	0,0123641	-2,483657	8,53967	1,670532	13	0,4036018	0,0049952	63,45387
	28	49	158,3615	0,012425	-0,0006087	1	0,0124399	-2,804677	8,538198	1,670521	13	0,4014333	0,0049969	63,45107
	29	51	125,558	0,0125112	-0,0006886	1	0,0125301	-3,150532	8,53653	1,670533	13	0,3984737	0,0049949	63,45377
	30	52	100,4464	0,0126037	-0,000772	1	0,0126273	-3,505189	8,538916	1,670527	13	0,395516	0,0049956	63,45047
	31	54	79,00281	0,0127252	-0,0008672	1	0,0127547	-3,898478	8,539535	1,67053	13	0,3915102	0,0049944	63,4498
	32	55	63,3446	0,0128513	-0,0009565	1	0,0128869	-4,256608	8,537331	1,670528	13	0,3873408	0,0049921	63,44944
	33	57	50,22321	0,0130003	-0,0010516	1	0,0130428	-4,624491	8,534516	1,670528	13	0,3820741	0,0049836	63,45706
	34	59	38,42213	0,0132049	-0,001169	1	0,0132565	-5,058943	8,536522	1,67053	13	0,3739479	0,0049574	63,45457
	35	60	31,25	0,0133801	-0,0012515	1	0,0134385	-5,343381	8,534706	1,670529	13	0,3666097	0,0049268	63,4592
	36	62	24,93351	0,0135988	-0,0013388	1	0,0136645	-5,622721	8,534281	1,670521	13	0,352667	0,0048191	63,46008
	37	64	19,86229	0,0138131	-0,0013831	1	0,0138822	-5,717962	8,534064	1,670533	13	0,3887714	0,005397	63,46469
	38	65	15,625	0,0140764	-0,0014633	1	0,0141522	-5,934784	8,529377	1,670502	13	0,3527645	0,0049924	63,45707
	39	67	12,40079	0,0143865	-0,0014396	1	0,0144584	-5,714361	8,531725	1,670516	13	0,3464048	0,0050085	63,44464
	40	68	9,93114	0,0146517	-0,0014246	1	0,0147208	-5,553649	8,53175	1,670526	13	0,3395672	0,0049987	63,45156
	41	70	7,944915	0,0148922	-0,0013574	1	0,014954	-5,207929	8,531013	1,670522	13	0,3344824	0,0050018	63,45205
	42	72	6,317385	0,0151682	-0,0012646	1	0,0152208	-4,765919	8,527929	1,670527	13	0,3284231	0,0049989	63,44958
	43	74	5,008013	0,0154116	-0,0012151	1	0,0154594	-4,507932	8,525999	1,670534	13	0,3236272	0,0050031	63,44879
	44	76	3,945707	0,0155587	-0,0010233	1	0,0155923	-3,763	8,523797	1,670522	13	0,3209975	0,0050051	63,45067
	45	79	3,158693	0,0156797	-0,0008687	1	0,0157037	-3,170974	8,524133	1,670524	13	0,31797	0,0049933	63,43854
	46	82	2,504006	0,015807	-0,0007343	1	0,015824	-2,659656	8,52199	1,670529	13	0,3059293	0,0048476	63,43814
	47	86	1,998082	0,0158765	-0,0006535	1	0,01589	-2,356973	8,523959	1,670525	13	0,3200909	0,0050908	63,44237
	48	91	1,584686	0,015927	-0,0005496	1	0,0159365	-1,976355	8,523623	1,670527	13	0,315803	0,0050357	63,44453
	49	98	1,266892	0,0159767	-0,0004743	1	0,0159837	-1,70061	8,527895	1,670526	13	0,3135786	0,005014	63,44997
	50	104	0,999041	0,0160376	-0,0004129	1	0,0160429	-1,474801	8,52653	1,670527	13	0,3121914	0,0050096	63,45595
	51	110	0,7923428	0,0160657	-0,0003141	1	0,0160688	-1,119926	8,529675	1,670528	13	0,3112357	0,0050019	63,46155
	52	117	0,6334459	0,0160982	-0,0002754	1	0,0161005	-0,980036	8,52912	1,670524	13	0,3108692	0,0050056	63,48756
	53	126	0,5040323	0,0161043	-0,0002284	1	0,0161059	-0,8125798	8,528525	1,670526	13	0,3100635	0,0049941	63,49844
	54	138	0,400641	0,016099	-0,0001653	1	0,0160998	-0,5883906	8,525991	1,670523	13	0,3107373	0,005003	63,5246
	55	149	0,316723	0,016128	-0,0001744	1	0,0161289	-0,6195334	8,523533	1,670522	13	0,3101105	0,0050019	63,52588
	56	167	0,2520161	0,0161254	-0,0001539	1	0,0161261	-0,5469279	8,516305	1,670523	13	0,3100103	0,0049993	63,50123
	57	188	0,2003205	0,0161045	-0,0001269	1	0,016105	-0,4515699	8,51576	1,670523	13	0,3103512	0,0049983	63,50538
	58	210	0,1588983	0,0161466	-0,0001444	1	0,0161473	-0,5124063	8,511296	1,670522	13	0,3097606	0,0050018	63,52058
	59	235	0,1260081	0,0161463	-0,000114	1	0,0161467	-0,4046328	8,508977	1,670529	13	0,3096724	0,0050002	63,52893
	60	273	0,1001603	0,0161838	-0,0001411	1	0,0161844	-0,4996871	8,503082	1,67053	13	0,3088728	0,0049989	63,56455
