EXPLAIN
TAG	EISPOT
TITLE	LABEL	Potentiostatic EIS	Test Identifier
DATE	LABEL	26/8/2026	Date
TIME	LABEL	17:39:50	Time
NOTES	NOTES	1	Notes...
	
PSTAT	PSTAT	REF3000-46189	Potentiostat
VDC	POTEN	1,80087E+000	F	Last Measured Potential (V)
FREQINIT	QUANT	1,00000E+005	Initial Freq. (Hz)
FREQFINAL	QUANT	1,00000E-001	Final Freq. (Hz)
PTSPERDEC	QUANT	1,00000E+001	Points/decade
VAC	QUANT	5,00000E+000	AC Voltage (mV rms)
AREA	QUANT	2,50000E+001	Sample Area (cm^2)
SPEED	SELECTOR	1	Optimize for:
DRIFTCOR	SELECTOR	0	Drift Correction
THD	SELECTOR	0	THD
ZGUESS	QUANT	2,00000E-002	Estimated Z (ohms)
EOC	QUANT	0,3747157	Open Circuit (V)
SEQUENCER	TOGGLE	TRUE	Run as Sequence
PSTATMODEL	IQUANT	6	Pstat Model
PSTATSECTION	LABEL	REF30K-46189	Pstat Section
PSTATSERIALNO	LABEL	46189	Pstat Serial Number
CTRLMODE	IQUANT	1	Control Mode
ELECTROMETER	IQUANT	0	RE=0 or CS=1
IESTAB	IQUANT	0	I/E Stability
CASPEED	IQUANT	3	Control Amp Speed
CONVENTION	IQUANT	1	Current Convention
ICHRANGE	IQUANT	2	Ich Range
ICHRANGEMODE	TOGGLE	F	Ich Auto Range
ICHOFFSETENABLE	TOGGLE	T	Ich Offset Enable
ICHOFFSET	QUANT	0	Ich Offset (V)
ICHFILTER	IQUANT	3	Ich Filter
VCHRANGE	IQUANT	2	Vch Range
VCHRANGEMODE	TOGGLE	F	Vch Auto Range
VCHOFFSETENABLE	TOGGLE	T	Vch Offset Enable
VCHOFFSET	QUANT	0	Vch Offset (V)
VCHFILTER	IQUANT	3	Vch Filter
ACHRANGE	IQUANT	2	Ach Range
ACHOFFSETENABLE	TOGGLE	F	Ach Offset Enable
ACHOFFSET	QUANT	0	Ach Offset (V)
ACHFILTER	IQUANT	1	Ach Filter
IERANGELOWERLIMIT	IQUANT	13	I/E Range Lower Limit
IERANGEMODE	TOGGLE	F	I/E AutoRange
IERANGE	IQUANT	13	I/E Range
POSFEEDENABLE	TOGGLE	F	Positive Feedback IR Comp
POSFEEDRESISTANCE	QUANT	0	Positive Feedback Resistance (ohm)
ACHSELECT	IQUANT	4	Ach Select
SENSECABLEID	IQUANT	14	Sense Cable ID
PWRCABLEID	IQUANT	8	Power Cable ID
DCCALDATE	LABEL	10/1/2025	DC Calibration Date
ACCALDATE	LABEL	10/1/2025	AC Calibration Date
THERMOSELECT	IQUANT	1	Thermo Select
FRAMEWORKVERSION	LABEL	7.10.1	Framework Version
INSTRUMENTVERSION	LABEL	4.80	Instrument Version
COMMVERSION	LABEL	5.10	Communications Version
CPUPLDVERSION	LABEL	6.00	CPU PLD Version
CTRLPLDVERSION	LABEL	3.21	CTRL PLD Version
PSTATPLDVERSION	LABEL	0.00	PSTAT PLD Version
BOOSTERDCCALDATE	LABEL	10/1/2025	Booster DC Calibration Date
ZCURVE	TABLE
	Pt	Time	Freq	Zreal	Zimag	Zsig	Zmod	Zphz	Idc	Vdc	IERange	Imod	Vmod	Temp
	#	s	Hz	ohm	ohm	V	ohm	°	A	V	#	A	V	°C
	0	3	100078,1	0,0135796	0,0089756	1	0,0162779	33,46319	17,38479	1,797706	13	0,3082933	0,0049971	63,46856
	1	4	79453,13	0,0133193	0,0073234	1	0,0151999	28,8037	17,38293	1,79773	13	0,4222572	0,0063971	63,47985
	2	6	63140,62	0,0131015	0,0059786	1	0,0144012	24,52854	17,37971	1,797729	13	0,4356408	0,0062566	63,47295
	3	8	50203,12	0,0129069	0,0048811	1	0,013799	20,71536	17,37738	1,797723	13	0,4448988	0,0061255	63,47713
	4	9	39890,62	0,0127417	0,0039818	1	0,0133494	17,35398	17,37752	1,797717	13	0,4616875	0,0061527	63,48795
	5	11	31640,63	0,0126147	0,0032377	1	0,0130236	14,39473	17,37862	1,79772	13	0,464294	0,0060392	63,47998
	6	13	25171,88	0,0125056	0,0026388	1	0,012781	11,91528	17,377	1,79773	13	0,4640368	0,0059256	63,4709
	7	14	20015,62	0,012419	0,0021451	1	0,0126029	9,79966	17,37649	1,797714	13	0,4615834	0,0058138	63,47905
	8	16	15890,62	0,0123502	0,0017414	1	0,0124724	8,026108	17,37701	1,797717	13	0,4563009	0,0056889	63,48742
	9	18	12609,38	0,012296	0,0014071	1	0,0123762	6,528096	17,37216	1,797704	13	0,4502447	0,0055709	63,48667
	10	19	10078,13	0,0122527	0,0011403	1	0,0123057	5,316957	17,37446	1,797712	13	0,439931	0,0054127	63,47404
	11	21	8015,625	0,0122201	0,0009194	1	0,0122546	4,302475	17,37287	1,797723	13	0,4337106	0,0053144	63,47802
	12	23	6328,125	0,012191	0,0007285	1	0,0122127	3,419805	17,37403	1,797714	13	0,4283802	0,0052313	63,48231
	13	25	5015,625	0,0121687	0,0005786	1	0,0121825	2,722426	17,37478	1,79772	13	0,4235398	0,0051595	63,48973
	14	26	3984,375	0,0121531	0,0004518	1	0,0121615	2,129175	17,37489	1,797717	13	0,4200525	0,0051083	63,48341
	15	28	3170,956	0,0121405	0,0003435	1	0,0121453	1,620607	17,3747	1,797703	13	0,4173141	0,0050683	63,47478
	16	30	2527,573	0,0121317	0,0002486	1	0,0121342	1,174117	17,37238	1,797698	13	0,4154335	0,0050409	63,48376
	17	31	1976,103	0,0121339	0,0001643	1	0,0121351	0,7759601	17,36958	1,797711	13	0,4145462	0,0050305	63,46682
	18	33	1577,524	0,0121326	8,889478E-005	1	0,0121329	0,4197944	17,36948	1,797716	13	0,4133429	0,005015	63,46972
	19	34	1265,625	0,0121434	2,543923E-005	1	0,0121435	0,1200285	17,36846	1,797725	13	0,4126495	0,005011	63,46105
	20	36	998,264	0,0121553	-3,7711E-005	1	0,0121554	-0,1777555	17,36383	1,797694	13	0,4117196	0,0050046	63,46375
	21	37	796,875	0,0121756	-9,316444E-005	1	0,012176	-0,4384018	17,36329	1,797703	13	0,4106227	0,0049997	63,4568
	22	39	627,7902	0,0122042	-0,0001513	1	0,0122051	-0,7101279	17,37029	1,797713	13	0,4096583	0,0049999	63,46025
	23	41	505,5147	0,0122342	-0,0002001	1	0,0122358	-0,9372168	17,36625	1,797706	13	0,4022792	0,0049603	63,46746
	24	42	397,9953	0,0122711	-0,0002511	1	0,0122736	-1,172394	17,36656	1,797716	13	0,4087483	0,0050395	63,46436
	25	44	315,5048	0,0123121	-0,0003004	1	0,0123157	-1,397772	17,37102	1,797713	13	0,4055018	0,0050075	63,46616
	26	45	252,4038	0,0123577	-0,0003508	1	0,0123627	-1,625985	17,36818	1,797699	13	0,4035252	0,004997	63,47115
	27	47	198,6229	0,012413	-0,0004014	1	0,0124195	-1,852294	17,36869	1,797712	13	0,4017615	0,0049947	63,46463
	28	48	158,3615	0,0124766	-0,0004516	1	0,0124848	-2,072952	17,36695	1,797713	13	0,4000033	0,0049971	63,46087
	29	50	125,558	0,0125505	-0,0005076	1	0,0125608	-2,316015	17,36477	1,797711	13	0,3976599	0,0049969	63,46138
	30	51	100,4464	0,0126321	-0,000557	1	0,0126444	-2,524619	17,36322	1,797717	13	0,3949739	0,0049955	63,45787
	31	53	79,00281	0,0127314	-0,0006105	1	0,0127461	-2,745267	17,36339	1,797712	13	0,3917235	0,0049937	63,45979
	32	55	63,3446	0,0128338	-0,0006547	1	0,0128505	-2,920262	17,36222	1,797708	13	0,3885404	0,0049934	63,46248
	33	56	50,22321	0,0129531	-0,0006906	1	0,0129715	-3,05186	17,36067	1,797715	13	0,3842778	0,004985	63,44846
	34	58	38,42213	0,0131115	-0,0007328	1	0,013132	-3,198713	17,35765	1,797706	13	0,3776481	0,0049595	63,4489
	35	59	31,25	0,0132329	-0,0007352	1	0,0132533	-3,179962	17,35496	1,797692	13	0,3718379	0,0049282	63,44487
	36	61	24,93351	0,0133695	-0,0007335	1	0,0133896	-3,140214	17,35732	1,797716	13	0,3606748	0,0048294	63,43851
	37	63	19,86229	0,0134672	-0,0007015	1	0,0134854	-2,981626	17,35703	1,797701	13	0,3994414	0,0053867	63,43656
	38	64	15,625	0,0136305	-0,0006753	1	0,0136472	-2,836508	17,35658	1,79769	13	0,3659621	0,0049944	63,44479
	39	66	12,40079	0,0137679	-0,0006094	1	0,0137814	-2,534196	17,35545	1,797703	13	0,3625114	0,0049959	63,43403
	40	67	9,93114	0,0138451	-0,0005539	1	0,0138561	-2,290897	17,35742	1,797713	13	0,3612007	0,0050049	63,44278
	41	69	7,944915	0,0139429	-0,0004971	1	0,0139517	-2,041708	17,35536	1,797706	13	0,3584322	0,0050008	63,43838
	42	71	6,317385	0,0139528	-0,000445	1	0,0139599	-1,826851	17,35546	1,797706	13	0,3579462	0,0049969	63,4357
	43	73	5,008013	0,0140435	-0,0003081	1	0,0140469	-1,256673	17,35718	1,797712	13	0,3559736	0,0050003	63,42944
	44	75	3,945707	0,0140891	-0,0003334	1	0,0140931	-1,355585	17,35672	1,7977	13	0,3546706	0,0049984	63,42901
	45	78	3,158693	0,0141274	-0,0003067	1	0,0141307	-1,243842	17,35718	1,797711	13	0,3538922	0,0050007	63,42398
	46	81	2,504006	0,0141409	-0,0002778	1	0,0141437	-1,125371	17,35631	1,797704	13	0,3423774	0,0048491	63,41733
	47	84	1,998082	0,014158	-0,0002522	1	0,0141602	-1,020716	17,35406	1,797705	13	0,3589303	0,0050871	63,40992
	48	90	1,584686	0,0141987	-0,0002229	1	0,0142004	-0,899349	17,35051	1,797707	13	0,3547123	0,00504	63,3929
	49	94	1,266892	0,0142285	-0,0002035	1	0,0142299	-0,8193907	17,35074	1,797711	13	0,3522619	0,0050145	63,39176
	50	100	0,999041	0,0142676	-0,0001652	1	0,0142686	-0,6634787	17,35701	1,797709	13	0,3504075	0,005001	63,38999
	51	105	0,7923428	0,0142486	-0,0001829	1	0,0142498	-0,7352687	17,35134	1,797709	13	0,351521	0,0050098	63,36908
	52	113	0,6334459	0,0142745	-0,0001694	1	0,0142755	-0,6797746	17,34515	1,797711	13	0,3501143	0,0049985	63,35857
	53	123	0,5040323	0,0143001	-0,0001503	1	0,0143009	-0,6021785	17,34023	1,797708	13	0,3497874	0,0050026	63,34717
	54	134	0,400641	0,0143492	-0,0001366	1	0,0143499	-0,5455351	17,33903	1,797707	13	0,3485275	0,0050015	63,34962
	55	146	0,316723	0,0143481	-0,0001238	1	0,0143486	-0,4941878	17,34528	1,797706	13	0,3482388	0,0049969	63,37394
	56	160	0,2520161	0,0143367	-9,1027E-005	1	0,014337	-0,3637788	17,34035	1,797706	13	0,3487575	0,0050002	63,36021
	57	178	0,2003205	0,0143573	-0,0001025	1	0,0143577	-0,4090647	17,33403	1,797706	13	0,3483889	0,0050021	63,34133
	58	204	0,1588983	0,0144168	-0,0001149	1	0,0144173	-0,4566579	17,33122	1,797709	13	0,3469931	0,0050027	63,35402
	59	230	0,1260081	0,0143416	-7,937715E-005	1	0,0143418	-0,3171146	17,31939	1,797706	13	0,3486142	0,0049998	63,29633
	60	268	0,1001603	0,0144363	-8,632898E-005	1	0,0144365	-0,3426251	17,31465	1,797703	13	0,3462659	0,0049989	63,32023
