EXPLAIN
TAG	EISPOT
TITLE	LABEL	Potentiostatic EIS	Test Identifier
DATE	LABEL	12/8/2026	Date
TIME	LABEL	20:56:21	Time
NOTES	NOTES	1	Notes...
	
PSTAT	PSTAT	REF3000-46189	Potentiostat
VDC	POTEN	1,80995E+000	F	Last Measured Potential (V)
FREQINIT	QUANT	1,00000E+005	Initial Freq. (Hz)
FREQFINAL	QUANT	1,00000E-001	Final Freq. (Hz)
PTSPERDEC	QUANT	1,00000E+001	Points/decade
VAC	QUANT	5,00000E+000	AC Voltage (mV rms)
AREA	QUANT	2,50000E+001	Sample Area (cm^2)
SPEED	SELECTOR	1	Optimize for:
DRIFTCOR	SELECTOR	0	Drift Correction
THD	SELECTOR	0	THD
ZGUESS	QUANT	2,00000E-002	Estimated Z (ohms)
EOC	QUANT	0,7480813	Open Circuit (V)
SEQUENCER	TOGGLE	TRUE	Run as Sequence
PSTATMODEL	IQUANT	6	Pstat Model
PSTATSECTION	LABEL	REF30K-46189	Pstat Section
PSTATSERIALNO	LABEL	46189	Pstat Serial Number
CTRLMODE	IQUANT	1	Control Mode
ELECTROMETER	IQUANT	0	RE=0 or CS=1
IESTAB	IQUANT	0	I/E Stability
CASPEED	IQUANT	3	Control Amp Speed
CONVENTION	IQUANT	1	Current Convention
ICHRANGE	IQUANT	2	Ich Range
ICHRANGEMODE	TOGGLE	F	Ich Auto Range
ICHOFFSETENABLE	TOGGLE	T	Ich Offset Enable
ICHOFFSET	QUANT	0	Ich Offset (V)
ICHFILTER	IQUANT	3	Ich Filter
VCHRANGE	IQUANT	2	Vch Range
VCHRANGEMODE	TOGGLE	F	Vch Auto Range
VCHOFFSETENABLE	TOGGLE	T	Vch Offset Enable
VCHOFFSET	QUANT	0	Vch Offset (V)
VCHFILTER	IQUANT	3	Vch Filter
ACHRANGE	IQUANT	2	Ach Range
ACHOFFSETENABLE	TOGGLE	F	Ach Offset Enable
ACHOFFSET	QUANT	0	Ach Offset (V)
ACHFILTER	IQUANT	1	Ach Filter
IERANGELOWERLIMIT	IQUANT	13	I/E Range Lower Limit
IERANGEMODE	TOGGLE	F	I/E AutoRange
IERANGE	IQUANT	13	I/E Range
POSFEEDENABLE	TOGGLE	F	Positive Feedback IR Comp
POSFEEDRESISTANCE	QUANT	0	Positive Feedback Resistance (ohm)
ACHSELECT	IQUANT	4	Ach Select
SENSECABLEID	IQUANT	14	Sense Cable ID
PWRCABLEID	IQUANT	8	Power Cable ID
DCCALDATE	LABEL	10/1/2025	DC Calibration Date
ACCALDATE	LABEL	10/1/2025	AC Calibration Date
THERMOSELECT	IQUANT	1	Thermo Select
FRAMEWORKVERSION	LABEL	7.10.1	Framework Version
INSTRUMENTVERSION	LABEL	4.80	Instrument Version
COMMVERSION	LABEL	5.10	Communications Version
CPUPLDVERSION	LABEL	6.00	CPU PLD Version
CTRLPLDVERSION	LABEL	3.21	CTRL PLD Version
PSTATPLDVERSION	LABEL	0.00	PSTAT PLD Version
BOOSTERDCCALDATE	LABEL	10/1/2025	Booster DC Calibration Date
ZCURVE	TABLE
	Pt	Time	Freq	Zreal	Zimag	Zsig	Zmod	Zphz	Idc	Vdc	IERange	Imod	Vmod	Temp
	#	s	Hz	ohm	ohm	V	ohm	°	A	V	#	A	V	°C
	0	4	100078,1	0,0133591	0,0068059	1	0,0149928	26,99693	17,43876	1,807053	13	0,3348975	0,0049998	63,55158
	1	6	79453,13	0,0131084	0,005592	1	0,0142513	23,10287	17,43495	1,807043	13	0,459325	0,0065244	63,55645
	2	8	63140,62	0,0128959	0,004593	1	0,0136894	19,60402	17,43232	1,807043	13	0,4652642	0,0063518	63,53958
	3	9	50203,12	0,0127042	0,0037776	1	0,013254	16,56002	17,42752	1,807037	13	0,4694631	0,0062084	63,54145
	4	11	39890,62	0,0125495	0,0030966	1	0,0129259	13,86074	17,43024	1,807032	13	0,4800596	0,0061945	63,54443
	5	13	31640,63	0,0124266	0,0025354	1	0,0126827	11,5317	17,43002	1,807043	13	0,4795082	0,0060738	63,5542
	6	14	25171,88	0,012323	0,0020752	1	0,0124965	9,55883	17,43129	1,807054	13	0,4762115	0,0059457	63,55638
	7	16	20015,62	0,0122388	0,0016915	1	0,0123551	7,868914	17,43101	1,80704	13	0,4716795	0,0058242	63,56083
	8	18	15890,62	0,0121773	0,0013802	1	0,0122552	6,466345	17,42633	1,807009	13	0,4650065	0,0056965	63,55063
	9	19	12609,38	0,0121265	0,0011182	1	0,0121779	5,268327	17,42899	1,807037	13	0,4574967	0,0055699	63,55732
	10	21	10078,13	0,0120827	0,0009077	1	0,0121168	4,296076	17,43065	1,807043	13	0,4462706	0,0054065	63,55832
	11	22	8015,625	0,0120504	0,0007322	1	0,0120726	3,477075	17,42875	1,807043	13	0,4398403	0,0053095	63,5691
	12	24	6328,125	0,0120224	0,0005866	1	0,0120367	2,793349	17,42978	1,807037	13	0,4344503	0,005229	63,55819
	13	26	5015,625	0,0120053	0,0004618	1	0,0120142	2,202752	17,42623	1,807028	13	0,4293469	0,005158	63,56004
	14	27	3984,375	0,0119847	0,0003629	1	0,0119902	1,734169	17,42715	1,80704	13	0,4256798	0,0051039	63,56993
	15	29	3170,956	0,0119747	0,000271	1	0,0119778	1,296494	17,42662	1,807044	13	0,4232997	0,0050701	63,55251
	16	31	2527,573	0,0119672	0,0001937	1	0,0119687	0,9273815	17,4253	1,807043	13	0,4212794	0,0050421	63,57304
	17	32	1976,103	0,0119667	0,0001162	1	0,0119672	0,5564137	17,42595	1,807052	13	0,4200616	0,0050269	63,56984
	18	34	1577,524	0,01197	5,56477E-005	1	0,0119701	0,2663618	17,4255	1,807038	13	0,4191275	0,005017	63,5671
	19	35	1265,625	0,0119776	-1,645668E-008	1	0,0119776	-7,872182E-005	17,42302	1,807034	13	0,4182359	0,0050094	63,56185
	20	37	998,264	0,0119956	-5,744108E-005	1	0,0119957	-0,2743597	17,4255	1,807049	13	0,4173275	0,0050061	63,56471
	21	39	796,875	0,0120099	-0,000103	1	0,0120103	-0,4913541	17,41946	1,807041	13	0,4162627	0,0049994	63,57484
	22	40	627,7902	0,0120359	-0,0001586	1	0,012037	-0,755015	17,42219	1,807029	13	0,4152691	0,0049986	63,55536
	23	42	505,5147	0,0120654	-0,0002066	1	0,0120672	-0,98101	17,41951	1,807032	13	0,4078101	0,0049592	63,55865
	24	43	397,9953	0,0121012	-0,0002551	1	0,0121039	-1,207481	17,42237	1,807037	13	0,4146318	0,0050413	63,5493
	25	45	315,5048	0,012141	-0,0003022	1	0,0121447	-1,426028	17,42305	1,807023	13	0,4110264	0,0050053	63,56384
	26	46	252,4038	0,0121873	-0,0003489	1	0,0121923	-1,63962	17,42011	1,807028	13	0,409169	0,004997	63,55193
	27	48	198,6229	0,0122414	-0,0003996	1	0,012248	-1,86974	17,42121	1,807042	13	0,4075936	0,0049972	63,56717
	28	49	158,3615	0,0123022	-0,0004517	1	0,0123105	-2,102861	17,42199	1,807033	13	0,4054592	0,0049946	63,55876
	29	51	125,558	0,012374	-0,000504	1	0,0123843	-2,332433	17,42133	1,807044	13	0,4032995	0,0049965	63,55981
	30	52	100,4464	0,0124526	-0,0005555	1	0,012465	-2,554154	17,41798	1,807024	13	0,4007407	0,0049965	63,56171
	31	54	79,00281	0,0125478	-0,0006109	1	0,0125626	-2,787468	17,41701	1,807021	13	0,3973449	0,0049925	63,56728
	32	56	63,3446	0,012652	-0,0006593	1	0,0126692	-2,982809	17,41736	1,807031	13	0,3940654	0,004993	63,56136
	33	57	50,22321	0,0127725	-0,0007035	1	0,0127918	-3,152658	17,41795	1,807038	13	0,3896903	0,0049852	63,55903
	34	59	38,42213	0,0129226	-0,0007384	1	0,0129437	-3,270325	17,41695	1,807043	13	0,3829559	0,004957	63,55831
	35	61	31,25	0,0130489	-0,0007606	1	0,013071	-3,335943	17,41479	1,807046	13	0,3768042	0,0049253	63,56477
	36	62	24,93351	0,0131958	-0,0007548	1	0,0132174	-3,273616	17,41536	1,807029	13	0,3647518	0,0048211	63,55668
	37	64	19,86229	0,013369	-0,0007438	1	0,0133897	-3,184405	17,4115	1,806999	13	0,4026497	0,0053914	63,56019
	38	65	15,625	0,0135331	-0,0006837	1	0,0135503	-2,892086	17,41586	1,807033	13	0,3695151	0,0050071	63,56774
	39	67	12,40079	0,0135995	-0,000657	1	0,0136153	-2,765649	17,40869	1,80704	13	0,3671147	0,0049984	63,55455
	40	69	9,93114	0,0136961	-0,0005738	1	0,0137081	-2,3991	17,41043	1,807036	13	0,3644494	0,0049959	63,55793
	41	70	7,944915	0,0138138	-0,0005381	1	0,0138242	-2,230873	17,41114	1,807017	13	0,3621977	0,0050071	63,55643
	42	72	6,317385	0,0138694	-0,0004585	1	0,013877	-1,893393	17,41003	1,807031	13	0,3601268	0,0049975	63,55173
	43	74	5,008013	0,0138222	-0,0003493	1	0,0138266	-1,447724	17,40831	1,807022	13	0,3615562	0,0049991	63,53657
	44	77	3,945707	0,0139094	-0,0003151	1	0,013913	-1,297637	17,40717	1,807035	13	0,3596311	0,0050036	63,53716
	45	79	3,158693	0,0139727	-0,0003171	1	0,0139763	-1,299867	17,40669	1,807025	13	0,3571355	0,0049914	63,53422
	46	83	2,504006	0,0140154	-0,0002623	1	0,0140178	-1,072026	17,4029	1,807025	13	0,3459183	0,0048556	63,53098
	47	87	1,998082	0,0140171	-0,0002181	1	0,0140188	-0,891538	17,39971	1,807029	13	0,3625278	0,0050868	63,51931
	48	91	1,584686	0,0140596	-0,0001826	1	0,0140608	-0,744042	17,39559	1,80703	13	0,3575735	0,0050307	63,4955
	49	95	1,266892	0,0141185	-0,0001978	1	0,0141199	-0,8026019	17,38805	1,807033	13	0,3552716	0,0050183	63,45881
	50	103	0,999041	0,0141136	-0,0001619	1	0,0141145	-0,6573572	17,38378	1,807032	13	0,3548661	0,0050099	63,44244
	51	110	0,7923428	0,0141242	-0,0001528	1	0,014125	-0,6199445	17,37641	1,807031	13	0,3537644	0,0049977	63,42393
	52	116	0,6334459	0,0141364	-0,000125	1	0,0141369	-0,5066153	17,37605	1,807028	13	0,3538878	0,0050034	63,4172
	53	126	0,5040323	0,0141612	-0,0001058	1	0,0141616	-0,4280794	17,37641	1,807027	13	0,35327	0,0050032	63,41285
	54	137	0,400641	0,0141637	-8,953293E-005	1	0,0141639	-0,3621798	17,37694	1,807029	13	0,3528717	0,0049982	63,42719
	55	149	0,316723	0,0141655	-0,0001198	1	0,014166	-0,4845884	17,378	1,807026	13	0,3532847	0,0050048	63,43134
	56	163	0,2520161	0,0141683	-8,652619E-005	1	0,0141686	-0,3499023	17,36542	1,807027	13	0,3527805	0,0049985	63,44427
	57	185	0,2003205	0,0141944	-8,684137E-005	1	0,0141946	-0,3505322	17,36837	1,807031	13	0,3520682	0,0049975	63,44055
	58	206	0,1588983	0,0141996	-6,649362E-005	1	0,0141998	-0,2683014	17,35645	1,80703	13	0,3522767	0,0050023	63,43203
	59	232	0,1260081	0,0142213	-0,0000994	1	0,0142217	-0,4003412	17,34639	1,807027	13	0,351684	0,0050016	63,39248
	60	262	0,1001603	0,0142507	-5,767713E-005	1	0,0142508	-0,2318937	17,34676	1,807022	13	0,3507822	0,0049989	63,41609
