EXPLAIN
TAG	EISPOT
TITLE	LABEL	Potentiostatic EIS	Test Identifier
DATE	LABEL	12/8/2026	Date
TIME	LABEL	20:40:04	Time
NOTES	NOTES	1	Notes...
	
PSTAT	PSTAT	REF3000-46189	Potentiostat
VDC	POTEN	1,52246E+000	F	Last Measured Potential (V)
FREQINIT	QUANT	1,00000E+005	Initial Freq. (Hz)
FREQFINAL	QUANT	1,00000E-001	Final Freq. (Hz)
PTSPERDEC	QUANT	1,00000E+001	Points/decade
VAC	QUANT	5,00000E+000	AC Voltage (mV rms)
AREA	QUANT	2,50000E+001	Sample Area (cm^2)
SPEED	SELECTOR	1	Optimize for:
DRIFTCOR	SELECTOR	0	Drift Correction
THD	SELECTOR	0	THD
ZGUESS	QUANT	2,00000E-002	Estimated Z (ohms)
EOC	QUANT	0,7480813	Open Circuit (V)
SEQUENCER	TOGGLE	TRUE	Run as Sequence
PSTATMODEL	IQUANT	6	Pstat Model
PSTATSECTION	LABEL	REF30K-46189	Pstat Section
PSTATSERIALNO	LABEL	46189	Pstat Serial Number
CTRLMODE	IQUANT	1	Control Mode
ELECTROMETER	IQUANT	0	RE=0 or CS=1
IESTAB	IQUANT	0	I/E Stability
CASPEED	IQUANT	3	Control Amp Speed
CONVENTION	IQUANT	1	Current Convention
ICHRANGE	IQUANT	2	Ich Range
ICHRANGEMODE	TOGGLE	F	Ich Auto Range
ICHOFFSETENABLE	TOGGLE	T	Ich Offset Enable
ICHOFFSET	QUANT	0	Ich Offset (V)
ICHFILTER	IQUANT	3	Ich Filter
VCHRANGE	IQUANT	2	Vch Range
VCHRANGEMODE	TOGGLE	F	Vch Auto Range
VCHOFFSETENABLE	TOGGLE	T	Vch Offset Enable
VCHOFFSET	QUANT	0	Vch Offset (V)
VCHFILTER	IQUANT	3	Vch Filter
ACHRANGE	IQUANT	2	Ach Range
ACHOFFSETENABLE	TOGGLE	F	Ach Offset Enable
ACHOFFSET	QUANT	0	Ach Offset (V)
ACHFILTER	IQUANT	1	Ach Filter
IERANGELOWERLIMIT	IQUANT	13	I/E Range Lower Limit
IERANGEMODE	TOGGLE	F	I/E AutoRange
IERANGE	IQUANT	13	I/E Range
POSFEEDENABLE	TOGGLE	F	Positive Feedback IR Comp
POSFEEDRESISTANCE	QUANT	0	Positive Feedback Resistance (ohm)
ACHSELECT	IQUANT	4	Ach Select
SENSECABLEID	IQUANT	14	Sense Cable ID
PWRCABLEID	IQUANT	8	Power Cable ID
DCCALDATE	LABEL	10/1/2025	DC Calibration Date
ACCALDATE	LABEL	10/1/2025	AC Calibration Date
THERMOSELECT	IQUANT	1	Thermo Select
FRAMEWORKVERSION	LABEL	7.10.1	Framework Version
INSTRUMENTVERSION	LABEL	4.80	Instrument Version
COMMVERSION	LABEL	5.10	Communications Version
CPUPLDVERSION	LABEL	6.00	CPU PLD Version
CTRLPLDVERSION	LABEL	3.21	CTRL PLD Version
PSTATPLDVERSION	LABEL	0.00	PSTAT PLD Version
BOOSTERDCCALDATE	LABEL	10/1/2025	Booster DC Calibration Date
ZCURVE	TABLE
	Pt	Time	Freq	Zreal	Zimag	Zsig	Zmod	Zphz	Idc	Vdc	IERange	Imod	Vmod	Temp
	#	s	Hz	ohm	ohm	V	ohm	°	A	V	#	A	V	°C
	0	4	100078,1	0,013422	0,0068861	1	0,0150853	27,15988	1,31217	1,520671	13	0,3327504	0,0049984	63,77974
	1	7	79453,13	0,0131771	0,0056524	1	0,0143382	23,21737	1,312742	1,520669	13	0,4516999	0,0064552	63,77338
	2	8	63140,62	0,0129785	0,00464	1	0,013783	19,6727	1,311174	1,520682	13	0,4615805	0,0063446	63,77864
	3	10	50203,12	0,0127969	0,0038095	1	0,0133519	16,57755	1,312065	1,520681	13	0,4686796	0,0062438	63,77958
	4	12	39890,62	0,0126464	0,0031215	1	0,0130259	13,8652	1,31269	1,520697	13	0,4732345	0,0061537	63,78226
	5	13	31640,63	0,0125221	0,0025476	1	0,0127786	11,49998	1,310481	1,520672	13	0,4744568	0,0060553	63,76904
	6	15	25171,88	0,0124242	0,0020792	1	0,012597	9,50066	1,31215	1,520685	13	0,4716113	0,0059356	63,78454
	7	17	20015,62	0,0123445	0,0016924	1	0,0124599	7,806589	1,31194	1,52068	13	0,4665142	0,0058093	63,78815
	8	18	15890,62	0,012279	0,0013714	1	0,0123554	6,372545	1,311591	1,520676	13	0,4611547	0,0056955	63,77484
	9	20	12609,38	0,0122322	0,0011047	1	0,0122819	5,160589	1,311066	1,520678	13	0,4505828	0,0055326	63,7757
	10	21	10078,13	0,0121935	0,0008921	1	0,0122261	4,184451	1,310534	1,52068	13	0,4409349	0,00539	63,778
	11	23	8015,625	0,0121648	0,0007052	1	0,0121852	3,317721	1,311423	1,520675	13	0,4340247	0,0052881	63,77225
	12	25	6328,125	0,0121371	0,0005493	1	0,0121495	2,591351	1,312269	1,520665	13	0,4288009	0,0052094	63,7792
	13	26	5015,625	0,0121238	0,0004169	1	0,012131	1,969527	1,311137	1,520675	13	0,423672	0,0051393	63,78545
	14	28	3984,375	0,0121115	0,0003096	1	0,0121155	1,464386	1,311542	1,520674	13	0,4202458	0,0050913	63,78016
	15	30	3170,956	0,0121039	0,0002121	1	0,0121057	1,003712	1,310971	1,520685	13	0,417738	0,0050569	63,78599
	16	31	2527,573	0,0120992	0,0001272	1	0,0120999	0,602565	1,311213	1,520675	13	0,4160914	0,0050346	63,79087
	17	33	1976,103	0,0121079	3,624189E-005	1	0,012108	0,1714994	1,310178	1,520668	13	0,4152441	0,0050277	63,77983
	18	35	1577,524	0,0121185	-3,958218E-005	1	0,0121186	-0,1871423	1,310542	1,520688	13	0,4137944	0,0050146	63,78252
	19	36	1265,625	0,0121347	-0,0001134	1	0,0121352	-0,5353628	1,311358	1,520668	13	0,4125434	0,0050063	63,7951
	20	38	998,264	0,0121601	-0,0001859	1	0,0121615	-0,8758903	1,310644	1,520686	13	0,4117886	0,0050079	63,7897
	21	39	796,875	0,0121916	-0,0002632	1	0,0121944	-1,236574	1,310659	1,520687	13	0,4102601	0,0050029	63,78795
	22	41	627,7902	0,0122226	-0,000335	1	0,0122272	-1,570124	1,311066	1,520681	13	0,4089538	0,0050004	63,78596
	23	42	505,5147	0,0122672	-0,0004161	1	0,0122742	-1,942638	1,310387	1,520658	13	0,4013017	0,0049638	63,79519
	24	44	397,9953	0,0123189	-0,0005053	1	0,0123293	-2,348773	1,311134	1,520662	13	0,407267	0,0050439	63,77665
	25	46	315,5048	0,0123804	-0,0005993	1	0,0123949	-2,771235	1,310516	1,520674	13	0,4029958	0,0050086	63,7804
	26	47	252,4038	0,0124449	-0,000699	1	0,0124646	-3,214915	1,310312	1,520679	13	0,400293	0,0049978	63,77966
	27	49	198,6229	0,012527	-0,0008221	1	0,012554	-3,754833	1,310358	1,520671	13	0,3974237	0,0049943	63,77506
	28	50	158,3615	0,0126181	-0,0009548	1	0,0126542	-4,32719	1,309132	1,520668	13	0,3945497	0,0049959	63,77423
	29	52	125,558	0,0127273	-0,0011097	1	0,0127756	-4,982939	1,310173	1,52067	13	0,3908431	0,0049952	63,77005
	30	53	100,4464	0,0128505	-0,0012765	1	0,0129138	-5,672986	1,311336	1,52068	13	0,3866937	0,0049949	63,77401
	31	55	79,00281	0,0130101	-0,0014864	1	0,0130948	-6,517552	1,309843	1,520672	13	0,3814286	0,0049955	63,76898
	32	57	63,3446	0,0131852	-0,0016986	1	0,0132941	-7,340776	1,31015	1,520674	13	0,3754415	0,0049917	63,78247
	33	59	50,22321	0,0134054	-0,0019495	1	0,0135464	-8,274349	1,30985	1,520678	13	0,3678365	0,0049832	63,78568
	34	60	38,42213	0,0137198	-0,0022597	1	0,0139046	-9,352749	1,311725	1,520673	13	0,3565402	0,0049577	63,77826
	35	62	31,25	0,0140038	-0,0025229	1	0,0142292	-10,21293	1,31053	1,520677	13	0,3461258	0,0049252	63,77871
	36	63	24,93351	0,0143634	-0,0028049	1	0,0146347	-11,04964	1,313536	1,520676	13	0,3294869	0,004822	63,78461
	37	65	19,86229	0,0147947	-0,0031199	1	0,0151201	-11,90803	1,310949	1,520673	13	0,3570068	0,005398	63,78984
	38	67	15,625	0,0153037	-0,003444	1	0,0156865	-12,68291	1,307396	1,520666	13	0,318624	0,0049981	63,78439
	39	68	12,40079	0,0157725	-0,0037681	1	0,0162163	-13,43632	1,308127	1,520667	13	0,3084485	0,0050019	63,79015
	40	70	9,93114	0,0162053	-0,0040746	1	0,0167097	-14,1138	1,313225	1,520684	13	0,2992877	0,005001	63,79303
	41	71	7,944915	0,0167244	-0,0044575	1	0,0173083	-14,92397	1,313038	1,520683	13	0,2888668	0,0049998	63,79957
	42	73	6,317385	0,017278	-0,0049016	1	0,0179598	-15,83824	1,314212	1,520666	13	0,2783091	0,0049984	63,80544
	43	75	5,008013	0,0179182	-0,0054521	1	0,0187293	-16,92395	1,314818	1,520668	13	0,2670333	0,0050013	63,81173
	44	77	3,945707	0,0186965	-0,0060634	1	0,0196551	-17,96811	1,314561	1,520662	13	0,2543916	0,0050001	63,81214
	45	80	3,158693	0,0196107	-0,0067243	1	0,0207315	-18,92642	1,316375	1,520667	13	0,2412978	0,0050025	63,80453
	46	83	2,504006	0,0207722	-0,0073944	1	0,0220491	-19,59458	1,315421	1,520669	13	0,2196059	0,0048487	63,81494
	47	87	1,998082	0,0221826	-0,007982	1	0,023575	-19,79022	1,314321	1,520671	13	0,215575	0,0050868	63,80266
	48	92	1,584686	0,0238798	-0,0083816	1	0,025308	-19,34051	1,314213	1,520675	13	0,1988081	0,0050344	63,79348
	49	96	1,266892	0,0256108	-0,0084561	1	0,0269707	-18,27202	1,31247	1,520672	13	0,1861759	0,0050232	63,79191
	50	102	0,999041	0,0274843	-0,0082511	1	0,0286962	-16,71023	1,312269	1,520673	13	0,1742296	0,0050009	63,79207
	51	107	0,7923428	0,0290933	-0,0076407	1	0,0300799	-14,71511	1,312815	1,52067	13	0,1664869	0,0050086	63,78493
	52	115	0,6334459	0,0305313	-0,0068037	1	0,0312802	-12,56265	1,310718	1,520667	13	0,1596649	0,0049948	63,76946
	53	123	0,5040323	0,0316011	-0,0058677	1	0,0321412	-10,51891	1,311543	1,52067	13	0,1557214	0,0050054	63,77192
	54	133	0,400641	0,0322777	-0,0050387	1	0,0326686	-8,872477	1,312983	1,520673	13	0,1531203	0,0050024	63,80213
	55	144	0,316723	0,0328523	-0,0040636	1	0,0331027	-7,051291	1,3139	1,520676	13	0,1510447	0,0050001	63,81179
	56	159	0,2520161	0,0331595	-0,0033965	1	0,033333	-5,848322	1,310835	1,520678	13	0,1500045	0,0050002	63,79236
	57	176	0,2003205	0,0334717	-0,0027283	1	0,0335827	-4,659962	1,309849	1,520674	13	0,148889	0,0050001	63,74422
	58	203	0,1588983	0,0337344	-0,0022358	1	0,0338084	-3,791898	1,305511	1,520672	13	0,1478475	0,0049985	63,71793
	59	234	0,1260081	0,0336818	-0,0017649	1	0,033728	-2,999464	1,310847	1,520671	13	0,148267	0,0050008	63,75458
	60	265	0,1001603	0,0339563	-0,0014485	1	0,0339872	-2,442623	1,307154	1,520672	13	0,1471039	0,0049997	63,77545
