EXPLAIN
TAG	EISPOT
TITLE	LABEL	Potentiostatic EIS	Test Identifier
DATE	LABEL	11/9/2026	Date
TIME	LABEL	1:58:10	Time
NOTES	NOTES	1	Notes...
	
PSTAT	PSTAT	REF3000-46189	Potentiostat
VDC	POTEN	1,52581E+000	F	Last Measured Potential (V)
FREQINIT	QUANT	1,00000E+005	Initial Freq. (Hz)
FREQFINAL	QUANT	1,00000E-001	Final Freq. (Hz)
PTSPERDEC	QUANT	1,00000E+001	Points/decade
VAC	QUANT	5,00000E+000	AC Voltage (mV rms)
AREA	QUANT	2,50000E+001	Sample Area (cm^2)
SPEED	SELECTOR	1	Optimize for:
DRIFTCOR	SELECTOR	0	Drift Correction
THD	SELECTOR	0	THD
ZGUESS	QUANT	2,00000E-002	Estimated Z (ohms)
EOC	QUANT	0,4328571	Open Circuit (V)
SEQUENCER	TOGGLE	TRUE	Run as Sequence
PSTATMODEL	IQUANT	6	Pstat Model
PSTATSECTION	LABEL	REF30K-46189	Pstat Section
PSTATSERIALNO	LABEL	46189	Pstat Serial Number
CTRLMODE	IQUANT	1	Control Mode
ELECTROMETER	IQUANT	0	RE=0 or CS=1
IESTAB	IQUANT	0	I/E Stability
CASPEED	IQUANT	3	Control Amp Speed
CONVENTION	IQUANT	1	Current Convention
ICHRANGE	IQUANT	2	Ich Range
ICHRANGEMODE	TOGGLE	F	Ich Auto Range
ICHOFFSETENABLE	TOGGLE	T	Ich Offset Enable
ICHOFFSET	QUANT	0	Ich Offset (V)
ICHFILTER	IQUANT	3	Ich Filter
VCHRANGE	IQUANT	2	Vch Range
VCHRANGEMODE	TOGGLE	F	Vch Auto Range
VCHOFFSETENABLE	TOGGLE	T	Vch Offset Enable
VCHOFFSET	QUANT	0	Vch Offset (V)
VCHFILTER	IQUANT	3	Vch Filter
ACHRANGE	IQUANT	2	Ach Range
ACHOFFSETENABLE	TOGGLE	F	Ach Offset Enable
ACHOFFSET	QUANT	0	Ach Offset (V)
ACHFILTER	IQUANT	1	Ach Filter
IERANGELOWERLIMIT	IQUANT	13	I/E Range Lower Limit
IERANGEMODE	TOGGLE	F	I/E AutoRange
IERANGE	IQUANT	13	I/E Range
POSFEEDENABLE	TOGGLE	F	Positive Feedback IR Comp
POSFEEDRESISTANCE	QUANT	0	Positive Feedback Resistance (ohm)
ACHSELECT	IQUANT	4	Ach Select
SENSECABLEID	IQUANT	14	Sense Cable ID
PWRCABLEID	IQUANT	8	Power Cable ID
DCCALDATE	LABEL	10/1/2025	DC Calibration Date
ACCALDATE	LABEL	10/1/2025	AC Calibration Date
THERMOSELECT	IQUANT	1	Thermo Select
FRAMEWORKVERSION	LABEL	7.10.1	Framework Version
INSTRUMENTVERSION	LABEL	4.80	Instrument Version
COMMVERSION	LABEL	5.10	Communications Version
CPUPLDVERSION	LABEL	6.00	CPU PLD Version
CTRLPLDVERSION	LABEL	3.21	CTRL PLD Version
PSTATPLDVERSION	LABEL	0.00	PSTAT PLD Version
BOOSTERDCCALDATE	LABEL	10/1/2025	Booster DC Calibration Date
ZCURVE	TABLE
	Pt	Time	Freq	Zreal	Zimag	Zsig	Zmod	Zphz	Idc	Vdc	IERange	Imod	Vmod	Temp
	#	s	Hz	ohm	ohm	V	ohm	°	A	V	#	A	V	°C
	0	3	100078,1	0,0135206	0,0093433	1	0,0164348	34,64613	1,291112	1,523808	13	0,3053335	0,0049968	63,60052
	1	5	79453,13	0,0132794	0,0076104	1	0,0153055	29,81707	1,29201	1,523803	13	0,4160877	0,0063475	63,59831
	2	7	63140,62	0,013072	0,006206	1	0,0144704	25,39611	1,292014	1,523805	13	0,4339971	0,0062629	63,60717
	3	9	50203,12	0,0128818	0,005068	1	0,0138428	21,47579	1,292729	1,52381	13	0,4457122	0,0061562	63,62481
	4	11	39890,62	0,0127282	0,0041233	1	0,0133794	17,94983	1,292102	1,52381	13	0,4557179	0,0060868	63,62712
	5	13	31640,63	0,0125969	0,0033489	1	0,0130344	14,88761	1,293493	1,523809	13	0,4613418	0,0060058	63,62023
	6	15	25171,88	0,0124925	0,0027219	1	0,0127856	12,29145	1,294477	1,523812	13	0,4609473	0,0058883	63,62345
	7	17	20015,62	0,012407	0,0022104	1	0,0126024	10,10149	1,294168	1,523811	13	0,4578167	0,0057661	63,63962
	8	19	15890,62	0,0123381	0,0017838	1	0,0124664	8,226415	1,293194	1,523799	13	0,4538957	0,0056562	63,63152
	9	20	12609,38	0,0122821	0,0014336	1	0,0123655	6,657694	1,295222	1,523801	13	0,4448359	0,0054992	63,64153
	10	22	10078,13	0,0122439	0,001156	1	0,0122984	5,393436	1,294383	1,523812	13	0,4363183	0,0053651	63,64787
	11	24	8015,625	0,0122127	0,0009213	1	0,0122474	4,313959	1,29462	1,523807	13	0,4303331	0,0052699	63,64749
	12	25	6328,125	0,0121912	0,0007227	1	0,0122126	3,392521	1,294493	1,523798	13	0,4255715	0,005197	63,65387
	13	27	5015,625	0,0121675	0,0005549	1	0,0121802	2,61119	1,295482	1,523799	13	0,4210505	0,0051283	63,65569
	14	28	3984,375	0,0121507	0,0004194	1	0,012158	1,976873	1,294024	1,523806	13	0,4179467	0,0050813	63,66069
	15	30	3170,956	0,0121451	0,0003049	1	0,012149	1,438097	1,294414	1,523793	13	0,4160946	0,005055	63,6695
	16	31	2527,573	0,0121439	0,0002042	1	0,0121456	0,963244	1,294437	1,523802	13	0,4145211	0,0050345	63,66079
	17	33	1976,103	0,0121468	0,0000959	1	0,0121472	0,4523304	1,295742	1,523814	13	0,413451	0,0050222	63,66501
	18	34	1577,524	0,0121538	5,855618E-006	1	0,0121538	0,0276048	1,296088	1,523815	13	0,4124202	0,0050124	63,67138
	19	36	1265,625	0,012178	-7,754466E-005	1	0,0121783	-0,3648308	1,295038	1,523802	13	0,4116618	0,0050133	63,66056
	20	37	998,264	0,012195	-0,0001565	1	0,012196	-0,7353277	1,297656	1,523818	13	0,4102105	0,0050029	63,67194
	21	39	796,875	0,0122243	-0,000236	1	0,0122265	-1,105799	1,296999	1,523803	13	0,4092565	0,0050038	63,66645
	22	40	627,7902	0,0122584	-0,0003224	1	0,0122627	-1,50653	1,296041	1,523808	13	0,4075668	0,0049978	63,66497
	23	42	505,5147	0,012299	-0,0004015	1	0,0123055	-1,869685	1,297183	1,523803	13	0,4003	0,004964	63,67545
	24	43	397,9953	0,0123523	-0,0004914	1	0,0123621	-2,277935	1,298054	1,52381	13	0,4062294	0,0050445	63,68158
	25	45	315,5048	0,0124106	-0,0005898	1	0,0124246	-2,72088	1,298034	1,523801	13	0,4020216	0,0050084	63,68893
	26	46	252,4038	0,0124753	-0,0006924	1	0,0124945	-3,176818	1,297976	1,523811	13	0,3993315	0,0049978	63,68417
	27	48	198,6229	0,0125565	-0,0008168	1	0,0125831	-3,72169	1,297646	1,523812	13	0,3965216	0,0049945	63,68079
	28	49	158,3615	0,0126463	-0,000952	1	0,0126821	-4,305215	1,296842	1,523798	13	0,3935482	0,0049942	63,69532
	29	51	125,558	0,012757	-0,0011073	1	0,0128049	-4,96069	1,298098	1,523812	13	0,3899353	0,0049951	63,67535
	30	53	100,4464	0,0128795	-0,0012779	1	0,0129427	-5,666263	1,297201	1,523808	13	0,3860478	0,0049978	63,68504
	31	54	79,00281	0,0130372	-0,0014876	1	0,0131218	-6,509752	1,296996	1,523799	13	0,3805151	0,0049938	63,67382
	32	56	63,3446	0,0132144	-0,0017049	1	0,0133239	-7,351426	1,296415	1,523804	13	0,3745999	0,0049916	63,66626
	33	58	50,22321	0,0134376	-0,0019576	1	0,0135794	-8,288795	1,295271	1,523799	13	0,3669441	0,0049832	63,66241
	34	59	38,42213	0,0137531	-0,0022719	1	0,0139395	-9,380131	1,297013	1,523791	13	0,3555771	0,0049567	63,66297
	35	61	31,25	0,0140331	-0,0025352	1	0,0142603	-10,24036	1,295862	1,523796	13	0,3451391	0,0049219	63,64151
	36	62	24,93351	0,014402	-0,0028262	1	0,0146767	-11,10233	1,294895	1,523795	13	0,3279282	0,004813	63,63867
	37	64	19,86229	0,014826	-0,0031257	1	0,0151519	-11,90505	1,291523	1,5238	13	0,3570609	0,0054102	63,64005
	38	66	15,625	0,0153205	-0,0034644	1	0,0157074	-12,74179	1,289076	1,523789	13	0,3185802	0,0050041	63,63155
	39	67	12,40079	0,0158358	-0,0037888	1	0,0162827	-13,45521	1,288404	1,523798	13	0,307252	0,0050029	63,62333
	40	69	9,93114	0,0162841	-0,0041024	1	0,0167929	-14,14014	1,290467	1,5238	13	0,2973184	0,0049929	63,62284
	41	70	7,944915	0,0168148	-0,0044637	1	0,0173972	-14,86705	1,292221	1,523791	13	0,287617	0,0050037	63,62076
	42	72	6,317385	0,0173672	-0,0048943	1	0,0180437	-15,73859	1,293257	1,523796	13	0,2771209	0,0050003	63,61765
	43	74	5,008013	0,0180296	-0,0054353	1	0,0188311	-16,77633	1,294266	1,523808	13	0,2655851	0,0050013	63,62693
	44	77	3,945707	0,0188131	-0,0060324	1	0,0197566	-17,77828	1,29492	1,523801	13	0,253163	0,0050016	63,62581
	45	79	3,158693	0,0197356	-0,0066498	1	0,0208258	-18,62096	1,296542	1,523801	13	0,2398046	0,0049941	63,64124
	46	82	2,504006	0,0208998	-0,0072783	1	0,0221308	-19,20046	1,295915	1,523805	13	0,2189223	0,0048515	63,6489
	47	87	1,998082	0,022264	-0,0078213	1	0,0235978	-19,35632	1,296711	1,523799	13	0,2156296	0,005093	63,65874
	48	91	1,584686	0,023882	-0,0081652	1	0,0252393	-18,8755	1,297178	1,523796	13	0,1991307	0,0050288	63,66525
	49	96	1,266892	0,0255885	-0,0082034	1	0,0268713	-17,77532	1,296654	1,523798	13	0,1866559	0,0050176	63,6589
	50	104	0,999041	0,0273801	-0,0079208	1	0,0285028	-16,13461	1,295086	1,5238	13	0,1757483	0,0050105	63,65507
	51	110	0,7923428	0,0289734	-0,0073607	1	0,0298938	-14,25437	1,295317	1,5238	13	0,1672943	0,0050018	63,64677
	52	116	0,6334459	0,0302169	-0,00648	1	0,0309039	-12,10367	1,293773	1,523802	13	0,1618665	0,0050028	63,63011
	53	124	0,5040323	0,0312484	-0,0056505	1	0,0317551	-10,24981	1,293567	1,523801	13	0,1574535	0,0050003	63,62818
	54	136	0,400641	0,0319256	-0,0046875	1	0,0322679	-8,352739	1,293911	1,523803	13	0,1550358	0,0050029	63,64186
	55	147	0,316723	0,0324743	-0,0038194	1	0,0326981	-6,707878	1,296156	1,523805	13	0,1529031	0,0049998	63,66476
	56	161	0,2520161	0,0328567	-0,0032005	1	0,0330122	-5,563462	1,296148	1,523803	13	0,1514748	0,0050006	63,69786
	57	183	0,2003205	0,0330365	-0,0025922	1	0,0331381	-4,486415	1,298193	1,523803	13	0,1508544	0,0049991	63,75119
	58	209	0,1588983	0,0331284	-0,0020902	1	0,0331942	-3,610277	1,29846	1,523803	13	0,1505674	0,004998	63,76726
	59	235	0,1260081	0,0332213	-0,0016701	1	0,0332633	-2,877938	1,297508	1,523799	13	0,1504498	0,0050045	63,75418
	60	265	0,1001603	0,0334877	-0,0014249	1	0,033518	-2,43639	1,294798	1,523802	13	0,1491713	0,0049999	63,75785
