EXPLAIN
TAG	EISPOT
TITLE	LABEL	Potentiostatic EIS	Test Identifier
DATE	LABEL	18/6/2026	Date
TIME	LABEL	18:07:37	Time
NOTES	NOTES	1	Notes...
	
PSTAT	PSTAT	REF3000-46189	Potentiostat
VDC	POTEN	1,49024E+000	F	Last Measured Potential (V)
FREQINIT	QUANT	1,00000E+005	Initial Freq. (Hz)
FREQFINAL	QUANT	1,00000E-001	Final Freq. (Hz)
PTSPERDEC	QUANT	1,00000E+001	Points/decade
VAC	QUANT	5,00000E+000	AC Voltage (mV rms)
AREA	QUANT	2,50000E+001	Sample Area (cm^2)
SPEED	SELECTOR	1	Optimize for:
DRIFTCOR	SELECTOR	0	Drift Correction
THD	SELECTOR	0	THD
ZGUESS	QUANT	2,00000E-002	Estimated Z (ohms)
EOC	QUANT	0,7736193	Open Circuit (V)
SEQUENCER	TOGGLE	TRUE	Run as Sequence
PSTATMODEL	IQUANT	6	Pstat Model
PSTATSECTION	LABEL	REF30K-46189	Pstat Section
PSTATSERIALNO	LABEL	46189	Pstat Serial Number
CTRLMODE	IQUANT	1	Control Mode
ELECTROMETER	IQUANT	0	RE=0 or CS=1
IESTAB	IQUANT	0	I/E Stability
CASPEED	IQUANT	3	Control Amp Speed
CONVENTION	IQUANT	1	Current Convention
ICHRANGE	IQUANT	2	Ich Range
ICHRANGEMODE	TOGGLE	F	Ich Auto Range
ICHOFFSETENABLE	TOGGLE	T	Ich Offset Enable
ICHOFFSET	QUANT	0	Ich Offset (V)
ICHFILTER	IQUANT	3	Ich Filter
VCHRANGE	IQUANT	2	Vch Range
VCHRANGEMODE	TOGGLE	F	Vch Auto Range
VCHOFFSETENABLE	TOGGLE	T	Vch Offset Enable
VCHOFFSET	QUANT	0	Vch Offset (V)
VCHFILTER	IQUANT	3	Vch Filter
ACHRANGE	IQUANT	2	Ach Range
ACHOFFSETENABLE	TOGGLE	F	Ach Offset Enable
ACHOFFSET	QUANT	0	Ach Offset (V)
ACHFILTER	IQUANT	1	Ach Filter
IERANGELOWERLIMIT	IQUANT	13	I/E Range Lower Limit
IERANGEMODE	TOGGLE	F	I/E AutoRange
IERANGE	IQUANT	13	I/E Range
POSFEEDENABLE	TOGGLE	F	Positive Feedback IR Comp
POSFEEDRESISTANCE	QUANT	0	Positive Feedback Resistance (ohm)
ACHSELECT	IQUANT	4	Ach Select
SENSECABLEID	IQUANT	14	Sense Cable ID
PWRCABLEID	IQUANT	8	Power Cable ID
DCCALDATE	LABEL	10/1/2025	DC Calibration Date
ACCALDATE	LABEL	10/1/2025	AC Calibration Date
THERMOSELECT	IQUANT	1	Thermo Select
FRAMEWORKVERSION	LABEL	7.10.1	Framework Version
INSTRUMENTVERSION	LABEL	4.80	Instrument Version
COMMVERSION	LABEL	5.10	Communications Version
CPUPLDVERSION	LABEL	6.00	CPU PLD Version
CTRLPLDVERSION	LABEL	3.21	CTRL PLD Version
PSTATPLDVERSION	LABEL	0.00	PSTAT PLD Version
BOOSTERDCCALDATE	LABEL	10/1/2025	Booster DC Calibration Date
ZCURVE	TABLE
	Pt	Time	Freq	Zreal	Zimag	Zsig	Zmod	Zphz	Idc	Vdc	IERange	Imod	Vmod	Temp
	#	s	Hz	ohm	ohm	V	ohm	°	A	V	#	A	V	°C
	0	4	100078,1	0,0141455	0,0068157	1	0,0157018	25,72605	1,306855	1,488501	13	0,3193988	0,0049939	63,87742
	1	5	79453,13	0,0139177	0,0055966	1	0,0150008	21,90619	1,306401	1,488509	13	0,4358393	0,0065164	63,88345
	2	7	63140,62	0,013714	0,0045905	1	0,0144619	18,50686	1,308239	1,488498	13	0,4437118	0,0063994	63,8922
	3	9	50203,12	0,0135353	0,0037726	1	0,0140513	15,57419	1,308762	1,488514	13	0,4458546	0,0062509	63,89243
	4	11	39890,62	0,0133915	0,0030862	1	0,0137425	12,9777	1,309223	1,488501	13	0,4481159	0,0061477	63,90048
	5	12	31640,63	0,0132607	0,0025185	1	0,0134977	10,75359	1,308722	1,48852	13	0,4468195	0,0060235	63,90483
	6	14	25171,88	0,0131657	0,0020576	1	0,0133255	8,882547	1,308651	1,488505	13	0,4418683	0,0058829	63,90647
	7	15	20015,62	0,0130898	0,0016744	1	0,0131965	7,28926	1,309441	1,488496	13	0,4347239	0,0057334	63,90856
	8	17	15890,62	0,0130243	0,0013525	1	0,0130944	5,928391	1,310654	1,488508	13	0,4283324	0,0056065	63,92402
	9	19	12609,38	0,0129767	0,00109	1	0,0130224	4,801494	1,30986	1,488511	13	0,4187443	0,0054517	63,92288
	10	20	10078,13	0,0129397	0,0008779	1	0,0129695	3,881457	1,310432	1,488512	13	0,4098046	0,0053141	63,93209
	11	22	8015,625	0,0129111	0,0007039	1	0,0129303	3,120727	1,311203	1,488508	13	0,4044252	0,0052288	63,94379
	12	24	6328,125	0,0128885	0,0005437	1	0,0129	2,415746	1,311075	1,488507	13	0,4003055	0,0051636	63,93841
	13	25	5015,625	0,0128697	0,0004174	1	0,0128764	1,857787	1,310906	1,4885	13	0,396781	0,0051089	63,95982
	14	27	3984,375	0,0128607	0,0003082	1	0,0128644	1,372841	1,310454	1,488509	13	0,3939862	0,0050683	63,93285
	15	29	3170,956	0,0128545	0,0002123	1	0,0128563	0,9461566	1,309978	1,488516	13	0,3922692	0,005043	63,94382
	16	30	2527,573	0,0128496	0,0001235	1	0,0128502	0,550456	1,312448	1,488517	13	0,3911018	0,0050257	63,94848
	17	32	1976,103	0,0128513	4,055991E-005	1	0,0128513	0,1808305	1,312751	1,488485	13	0,3905468	0,005019	63,94822
	18	34	1577,524	0,0128677	-3,768676E-005	1	0,0128677	-0,1678072	1,31105	1,488514	13	0,3895771	0,0050129	63,9445
	19	35	1265,625	0,0128819	-0,000105	1	0,0128823	-0,4668006	1,311283	1,488515	13	0,3886086	0,0050062	63,95219
	20	37	998,264	0,0129058	-0,0001784	1	0,012907	-0,7918735	1,308734	1,4885	13	0,3878336	0,0050058	63,94112
	21	38	796,875	0,0129325	-0,0002498	1	0,0129349	-1,106494	1,30861	1,488484	13	0,3864275	0,0049984	63,94622
	22	40	627,7902	0,0129722	-0,0003308	1	0,0129764	-1,460803	1,309006	1,488485	13	0,3854229	0,0050014	63,94333
	23	41	505,5147	0,0130088	-0,0004023	1	0,013015	-1,771169	1,310008	1,488505	13	0,3783801	0,0049627	63,93509
	24	43	397,9953	0,0130622	-0,0004887	1	0,0130714	-2,142603	1,309285	1,488496	13	0,3842082	0,0050448	63,91416
	25	44	315,5048	0,0131176	-0,0005793	1	0,0131304	-2,528791	1,31112	1,488498	13	0,3804015	0,0050083	63,93263
	26	46	252,4038	0,0131808	-0,0006767	1	0,0131982	-2,938846	1,310204	1,488508	13	0,3780251	0,0049976	63,93839
	27	48	198,6229	0,0132629	-0,0007959	1	0,0132868	-3,434257	1,310063	1,488499	13	0,3755378	0,0049947	63,94823
	28	49	158,3615	0,013353	-0,0009229	1	0,0133849	-3,953946	1,309254	1,488513	13	0,3729171	0,0049946	63,93381
	29	51	125,558	0,0134607	-0,0010706	1	0,0135032	-4,547622	1,309064	1,4885	13	0,3698825	0,0049965	63,93157
	30	52	100,4464	0,0135766	-0,0012301	1	0,0136322	-5,176922	1,309498	1,48851	13	0,3663801	0,0049958	63,9314
	31	54	79,00281	0,0137356	-0,001426	1	0,0138095	-5,927023	1,308767	1,488509	13	0,3616584	0,0049951	63,92934
	32	56	63,3446	0,0139049	-0,0016288	1	0,014	-6,681211	1,307925	1,488496	13	0,3565664	0,0049924	63,92548
	33	57	50,22321	0,0141178	-0,0018593	1	0,0142397	-7,502492	1,309284	1,488505	13	0,3501472	0,0049863	63,93138
	34	59	38,42213	0,0144132	-0,0021572	1	0,0145738	-8,51227	1,310962	1,488499	13	0,3405373	0,0049631	63,93711
	35	61	31,25	0,0146735	-0,0024042	1	0,0148691	-9,304903	1,309983	1,488512	13	0,3315909	0,0049306	63,9344
	36	63	24,93351	0,0150064	-0,0026778	1	0,0152435	-10,1174	1,30977	1,488499	13	0,3171487	0,0048345	63,92906
	37	64	19,86229	0,0153889	-0,0029798	1	0,0156748	-10,95862	1,309187	1,488503	13	0,3423854	0,0053669	63,9311
	38	66	15,625	0,0158483	-0,0033136	1	0,016191	-11,80954	1,306161	1,488492	13	0,3088851	0,0050012	63,93062
	39	67	12,40079	0,0163129	-0,0036329	1	0,0167125	-12,55494	1,307686	1,488509	13	0,2990223	0,0049974	63,92862
	40	69	9,93114	0,0167623	-0,0039617	1	0,0172241	-13,29746	1,308826	1,488498	13	0,2905836	0,0050051	63,92961
	41	71	7,944915	0,017258	-0,0043316	1	0,0177933	-14,08968	1,309689	1,488488	13	0,2808607	0,0049974	63,93508
	42	73	6,317385	0,017805	-0,0047774	1	0,0184348	-15,01955	1,310746	1,488505	13	0,2712411	0,0050003	63,9413
	43	75	5,008013	0,0184013	-0,0052642	1	0,0191395	-15,9645	1,311191	1,488494	13	0,2612625	0,0050004	63,94178
	44	77	3,945707	0,0191922	-0,0058833	1	0,0200737	-17,04287	1,313112	1,488498	13	0,2490194	0,0049987	63,9517
	45	80	3,158693	0,0200421	-0,0065006	1	0,0210699	-17,97044	1,31273	1,488502	13	0,2374057	0,0050021	63,95589
	46	83	2,504006	0,0211403	-0,0071775	1	0,0223255	-18,75321	1,312539	1,488507	13	0,2169138	0,0048493	63,96137
	47	87	1,998082	0,0224395	-0,0077799	1	0,0237499	-19,12176	1,313707	1,488501	13	0,2136691	0,0050792	63,96246
	48	91	1,584686	0,0240523	-0,0082658	1	0,025433	-18,96579	1,31213	1,488503	13	0,1980927	0,005041	63,96431
	49	96	1,266892	0,0257076	-0,0084673	1	0,0270661	-18,23034	1,31216	1,488502	13	0,1854541	0,0050214	63,9631
	50	103	0,999041	0,0275821	-0,0082736	1	0,0287962	-16,69725	1,311685	1,488503	13	0,1736547	0,0050018	63,96246
	51	108	0,7923428	0,0292649	-0,007793	1	0,0302848	-14,91132	1,309951	1,488504	13	0,1654295	0,0050107	63,93089
	52	116	0,6334459	0,0307565	-0,0070811	1	0,0315611	-12,96533	1,309255	1,488507	13	0,1581941	0,0049933	63,91984
	53	126	0,5040323	0,0319315	-0,006125	1	0,0325136	-10,85838	1,309297	1,488504	13	0,1537477	0,0049992	63,91435
	54	135	0,400641	0,032752	-0,0052563	1	0,0331711	-9,117555	1,311028	1,488504	13	0,1510504	0,0050107	63,93436
	55	149	0,316723	0,0334465	-0,0043291	1	0,0337255	-7,375035	1,311649	1,488507	13	0,1482027	0,0049983	63,95072
	56	167	0,2520161	0,0336786	-0,0034917	1	0,0338591	-5,919175	1,311936	1,488506	13	0,1476964	0,0050009	63,95834
	57	184	0,2003205	0,0340645	-0,0028736	1	0,0341855	-4,821878	1,308573	1,488507	13	0,1462826	0,0050008	63,91537
	58	211	0,1588983	0,0342538	-0,00225	1	0,0343276	-3,75817	1,310459	1,488506	13	0,1456478	0,0049998	63,94332
	59	236	0,1260081	0,0343336	-0,0019767	1	0,0343905	-3,295031	1,307934	1,488509	13	0,1453429	0,0049984	63,90746
	60	266	0,1001603	0,0345449	-0,0015379	1	0,0345791	-2,549024	1,309119	1,488509	13	0,1445899	0,0049998	63,94958
