EXPLAIN
TAG	EISPOT
TITLE	LABEL	Potentiostatic EIS	Test Identifier
DATE	LABEL	3/9/2026	Date
TIME	LABEL	9:48:57	Time
NOTES	NOTES	1	Notes...
	
PSTAT	PSTAT	REF3000-46189	Potentiostat
VDC	POTEN	1,67150E+000	F	Last Measured Potential (V)
FREQINIT	QUANT	1,00000E+005	Initial Freq. (Hz)
FREQFINAL	QUANT	1,00000E-001	Final Freq. (Hz)
PTSPERDEC	QUANT	1,00000E+001	Points/decade
VAC	QUANT	5,00000E+000	AC Voltage (mV rms)
AREA	QUANT	2,50000E+001	Sample Area (cm^2)
SPEED	SELECTOR	1	Optimize for:
DRIFTCOR	SELECTOR	0	Drift Correction
THD	SELECTOR	0	THD
ZGUESS	QUANT	2,00000E-002	Estimated Z (ohms)
EOC	QUANT	0,4463685	Open Circuit (V)
SEQUENCER	TOGGLE	TRUE	Run as Sequence
PSTATMODEL	IQUANT	6	Pstat Model
PSTATSECTION	LABEL	REF30K-46189	Pstat Section
PSTATSERIALNO	LABEL	46189	Pstat Serial Number
CTRLMODE	IQUANT	1	Control Mode
ELECTROMETER	IQUANT	0	RE=0 or CS=1
IESTAB	IQUANT	0	I/E Stability
CASPEED	IQUANT	3	Control Amp Speed
CONVENTION	IQUANT	1	Current Convention
ICHRANGE	IQUANT	2	Ich Range
ICHRANGEMODE	TOGGLE	F	Ich Auto Range
ICHOFFSETENABLE	TOGGLE	T	Ich Offset Enable
ICHOFFSET	QUANT	0	Ich Offset (V)
ICHFILTER	IQUANT	3	Ich Filter
VCHRANGE	IQUANT	2	Vch Range
VCHRANGEMODE	TOGGLE	F	Vch Auto Range
VCHOFFSETENABLE	TOGGLE	T	Vch Offset Enable
VCHOFFSET	QUANT	0	Vch Offset (V)
VCHFILTER	IQUANT	3	Vch Filter
ACHRANGE	IQUANT	2	Ach Range
ACHOFFSETENABLE	TOGGLE	F	Ach Offset Enable
ACHOFFSET	QUANT	0	Ach Offset (V)
ACHFILTER	IQUANT	1	Ach Filter
IERANGELOWERLIMIT	IQUANT	13	I/E Range Lower Limit
IERANGEMODE	TOGGLE	F	I/E AutoRange
IERANGE	IQUANT	13	I/E Range
POSFEEDENABLE	TOGGLE	F	Positive Feedback IR Comp
POSFEEDRESISTANCE	QUANT	0	Positive Feedback Resistance (ohm)
ACHSELECT	IQUANT	4	Ach Select
SENSECABLEID	IQUANT	14	Sense Cable ID
PWRCABLEID	IQUANT	8	Power Cable ID
DCCALDATE	LABEL	10/1/2025	DC Calibration Date
ACCALDATE	LABEL	10/1/2025	AC Calibration Date
THERMOSELECT	IQUANT	1	Thermo Select
FRAMEWORKVERSION	LABEL	7.10.1	Framework Version
INSTRUMENTVERSION	LABEL	4.80	Instrument Version
COMMVERSION	LABEL	5.10	Communications Version
CPUPLDVERSION	LABEL	6.00	CPU PLD Version
CTRLPLDVERSION	LABEL	3.21	CTRL PLD Version
PSTATPLDVERSION	LABEL	0.00	PSTAT PLD Version
BOOSTERDCCALDATE	LABEL	10/1/2025	Booster DC Calibration Date
ZCURVE	TABLE
	Pt	Time	Freq	Zreal	Zimag	Zsig	Zmod	Zphz	Idc	Vdc	IERange	Imod	Vmod	Temp
	#	s	Hz	ohm	ohm	V	ohm	°	A	V	#	A	V	°C
	0	4	100078,1	0,0136007	0,009288	1	0,0164696	34,32946	8,520737	1,668973	13	0,3049406	0,005001	63,90727
	1	6	79453,13	0,0133498	0,0075667	1	0,015345	29,54463	8,518864	1,668984	13	0,4115326	0,0062942	63,9085
	2	8	63140,62	0,013134	0,0061789	1	0,0145149	25,19466	8,518124	1,668985	13	0,4274897	0,006188	63,90821
	3	10	50203,12	0,0129411	0,005047	1	0,0138905	21,3055	8,515128	1,668972	13	0,4399027	0,0060968	63,90917
	4	11	39890,62	0,012778	0,0041111	1	0,0134231	17,83479	8,516326	1,668964	13	0,4587086	0,0061467	63,90744
	5	13	31640,63	0,0126485	0,0033424	1	0,0130827	14,80232	8,514588	1,668965	13	0,4643523	0,0060673	63,91675
	6	15	25171,88	0,012538	0,0027191	1	0,0128295	12,23612	8,513868	1,668962	13	0,4670975	0,0059873	63,90569
	7	16	20015,62	0,012452	0,0022122	1	0,012647	10,07395	8,514205	1,668974	13	0,4681408	0,005917	63,90368
	8	18	15890,62	0,0123831	0,0017905	1	0,0125118	8,227338	8,51244	1,668965	13	0,4641449	0,005805	63,91075
	9	20	12609,38	0,0123256	0,0014447	1	0,01241	6,684988	8,511702	1,66897	13	0,4581563	0,0056842	63,90669
	10	22	10078,13	0,0122828	0,0011672	1	0,0123381	5,428152	8,512191	1,66898	13	0,4496533	0,0055469	63,89898
	11	23	8015,625	0,0122488	0,0009388	1	0,0122847	4,382664	8,51175	1,668973	13	0,4413644	0,0054215	63,90365
	12	25	6328,125	0,0122188	0,0007454	1	0,0122415	3,491174	8,509968	1,668972	13	0,43454	0,0053191	63,89669
	13	27	5015,625	0,0121993	0,0005857	1	0,0122133	2,748799	8,507896	1,668961	13	0,4280813	0,0052281	63,88523
	14	28	3984,375	0,0121834	0,0004515	1	0,0121918	2,122543	8,506328	1,668969	13	0,4229734	0,0051566	63,88379
	15	30	3170,956	0,012176	0,0003396	1	0,0121807	1,597795	8,507274	1,668974	13	0,4190363	0,0051041	63,89305
	16	32	2527,573	0,0121674	0,0002445	1	0,0121699	1,151012	8,503556	1,668976	13	0,4159394	0,0050619	63,87609
	17	33	1976,103	0,0121633	0,0001481	1	0,0121642	0,6974511	8,501684	1,66896	13	0,4145253	0,0050424	63,86548
	18	35	1577,524	0,0121697	7,015699E-005	1	0,0121699	0,3302993	8,500558	1,668976	13	0,4127778	0,0050235	63,85424
	19	36	1265,625	0,0121823	8,8397E-007	1	0,0121823	0,0041575	8,501163	1,668959	13	0,4118105	0,0050168	63,85997
	20	38	998,264	0,0121955	-6,3812E-005	1	0,0121957	-0,2997932	8,502211	1,668981	13	0,4108018	0,00501	63,85514
	21	39	796,875	0,0122196	-0,000127	1	0,0122203	-0,5952474	8,502008	1,668972	13	0,409376	0,0050027	63,85703
	22	41	627,7902	0,012246	-0,0001962	1	0,0122475	-0,9180504	8,498856	1,668971	13	0,4082385	0,0049999	63,84513
	23	42	505,5147	0,0122829	-0,0002553	1	0,0122855	-1,190489	8,498714	1,668968	13	0,4006944	0,0049608	63,84746
	24	44	397,9953	0,0123254	-0,0003182	1	0,0123295	-1,478689	8,496758	1,668949	13	0,4070073	0,0050408	63,8518
	25	45	315,5048	0,0123714	-0,0003823	1	0,0123774	-1,770191	8,498959	1,668965	13	0,4032587	0,0050048	63,83704
	26	47	252,4038	0,0124263	-0,000445	1	0,0124343	-2,050794	8,495887	1,668976	13	0,4013726	0,0049991	63,84293
	27	48	198,6229	0,0124907	-0,0005192	1	0,0125015	-2,380297	8,496281	1,668977	13	0,3991652	0,0049952	63,83233
	28	50	158,3615	0,0125623	-0,0005926	1	0,0125763	-2,700657	8,492943	1,668967	13	0,3970809	0,0049969	63,8218
	29	51	125,558	0,0126457	-0,0006729	1	0,0126636	-3,046004	8,496952	1,668976	13	0,3942709	0,0049948	63,81931
	30	53	100,4464	0,0127404	-0,0007551	1	0,0127627	-3,391765	8,492607	1,668948	13	0,3913684	0,0049962	63,81105
	31	54	79,00281	0,0128589	-0,0008497	1	0,0128869	-3,780438	8,493206	1,668963	13	0,3876249	0,004996	63,81591
	32	56	63,3446	0,0129834	-0,0009373	1	0,0130172	-4,129174	8,492787	1,668952	13	0,3834002	0,0049913	63,81448
	33	58	50,22321	0,0131288	-0,0010329	1	0,0131694	-4,498605	8,494587	1,668965	13	0,3783338	0,0049827	63,82187
	34	59	38,42213	0,0133268	-0,001147	1	0,013376	-4,919126	8,493981	1,668962	13	0,3706345	0,0049578	63,8152
	35	61	31,25	0,0135022	-0,001225	1	0,0135577	-5,1839	8,494222	1,668953	13	0,3631527	0,0049236	63,82104
	36	62	24,93351	0,0137173	-0,0013053	1	0,0137792	-5,435932	8,491114	1,668956	13	0,3497061	0,0048188	63,81214
	37	64	19,86229	0,0139973	-0,0013835	1	0,0140655	-5,64467	8,49504	1,668965	13	0,3840151	0,0054014	63,82707
	38	66	15,625	0,0142676	-0,0013971	1	0,0143359	-5,59277	8,495939	1,668964	13	0,3490567	0,0050041	63,82157
	39	67	12,40079	0,0144579	-0,0014069	1	0,0145262	-5,557826	8,492514	1,668952	13	0,3435833	0,004991	63,81094
	40	68	9,93114	0,0147601	-0,0013794	1	0,0148245	-5,338878	8,492351	1,668951	13	0,337691	0,0050061	63,81192
	41	70	7,944915	0,0150235	-0,0013015	1	0,0150798	-4,951299	8,493596	1,668961	13	0,3316067	0,0050006	63,82423
	42	72	6,317385	0,0152201	-0,0012061	1	0,0152678	-4,530798	8,493862	1,668956	13	0,3277165	0,0050035	63,82685
	43	74	5,008013	0,015494	-0,0010568	1	0,01553	-3,902051	8,495678	1,668953	13	0,3216421	0,0049951	63,83445
	44	76	3,945707	0,0156365	-0,0009574	1	0,0156658	-3,503857	8,494146	1,668953	13	0,3192591	0,0050014	63,83798
	45	79	3,158693	0,0157493	-0,0008557	1	0,0157725	-3,110149	8,493903	1,668953	13	0,3168095	0,0049969	63,83504
	46	82	2,504006	0,0158486	-0,0007338	1	0,0158656	-2,650834	8,496939	1,668956	13	0,305398	0,0048519	63,84072
	47	86	1,998082	0,0159241	-0,0006208	1	0,0159362	-2,232388	8,497607	1,668955	13	0,3188875	0,0050865	63,84191
	48	91	1,584686	0,015975	-0,0005422	1	0,0159842	-1,943926	8,495308	1,668957	13	0,3149164	0,0050366	63,8561
	49	97	1,266892	0,0160322	-0,0004385	1	0,0160382	-1,566566	8,493972	1,668952	13	0,3125499	0,0050146	63,86472
	50	105	0,999041	0,0160817	-0,0003721	1	0,016086	-1,325549	8,492624	1,668947	13	0,3115797	0,0050133	63,85915
	51	111	0,7923428	0,0161189	-0,00033	1	0,0161223	-1,172702	8,490451	1,668952	13	0,3098705	0,0049966	63,85432
	52	117	0,6334459	0,0161596	-0,0002724	1	0,0161619	-0,965834	8,48864	1,66895	13	0,3091783	0,0049974	63,86096
	53	127	0,5040323	0,016163	-0,0002478	1	0,0161649	-0,8784196	8,488432	1,668951	13	0,3095912	0,0050048	63,84983
	54	138	0,400641	0,0161332	-0,0001989	1	0,0161344	-0,7063529	8,480612	1,668954	13	0,3100701	0,005003	63,81644
	55	152	0,316723	0,0161528	-0,000172	1	0,0161538	-0,610109	8,472913	1,668952	13	0,309445	0,0049988	63,77324
	56	170	0,2520161	0,0162008	-0,000155	1	0,0162016	-0,5481062	8,466481	1,668948	13	0,308624	0,0050003	63,74969
	57	187	0,2003205	0,0162024	-0,0001445	1	0,016203	-0,5111203	8,465345	1,66895	13	0,3087059	0,005002	63,73514
	58	209	0,1588983	0,0162344	-0,0001264	1	0,0162349	-0,44604	8,465324	1,668949	13	0,3080213	0,0050007	63,75871
	59	241	0,1260081	0,0162469	-0,0001305	1	0,0162474	-0,4602531	8,463793	1,668952	13	0,3077265	0,0049998	63,79279
	60	271	0,1001603	0,0162103	-0,0001156	1	0,0162107	-0,4085722	8,462417	1,66895	13	0,3082498	0,0049969	63,78194
