EXPLAIN
TAG	EISPOT
TITLE	LABEL	Potentiostatic EIS	Test Identifier
DATE	LABEL	3/9/2026	Date
TIME	LABEL	9:40:36	Time
NOTES	NOTES	1	Notes...
	
PSTAT	PSTAT	REF3000-46189	Potentiostat
VDC	POTEN	1,52159E+000	F	Last Measured Potential (V)
FREQINIT	QUANT	1,00000E+005	Initial Freq. (Hz)
FREQFINAL	QUANT	1,00000E-001	Final Freq. (Hz)
PTSPERDEC	QUANT	1,00000E+001	Points/decade
VAC	QUANT	5,00000E+000	AC Voltage (mV rms)
AREA	QUANT	2,50000E+001	Sample Area (cm^2)
SPEED	SELECTOR	1	Optimize for:
DRIFTCOR	SELECTOR	0	Drift Correction
THD	SELECTOR	0	THD
ZGUESS	QUANT	2,00000E-002	Estimated Z (ohms)
EOC	QUANT	0,4463685	Open Circuit (V)
SEQUENCER	TOGGLE	TRUE	Run as Sequence
PSTATMODEL	IQUANT	6	Pstat Model
PSTATSECTION	LABEL	REF30K-46189	Pstat Section
PSTATSERIALNO	LABEL	46189	Pstat Serial Number
CTRLMODE	IQUANT	1	Control Mode
ELECTROMETER	IQUANT	0	RE=0 or CS=1
IESTAB	IQUANT	0	I/E Stability
CASPEED	IQUANT	3	Control Amp Speed
CONVENTION	IQUANT	1	Current Convention
ICHRANGE	IQUANT	2	Ich Range
ICHRANGEMODE	TOGGLE	F	Ich Auto Range
ICHOFFSETENABLE	TOGGLE	T	Ich Offset Enable
ICHOFFSET	QUANT	0	Ich Offset (V)
ICHFILTER	IQUANT	3	Ich Filter
VCHRANGE	IQUANT	2	Vch Range
VCHRANGEMODE	TOGGLE	F	Vch Auto Range
VCHOFFSETENABLE	TOGGLE	T	Vch Offset Enable
VCHOFFSET	QUANT	0	Vch Offset (V)
VCHFILTER	IQUANT	3	Vch Filter
ACHRANGE	IQUANT	2	Ach Range
ACHOFFSETENABLE	TOGGLE	F	Ach Offset Enable
ACHOFFSET	QUANT	0	Ach Offset (V)
ACHFILTER	IQUANT	1	Ach Filter
IERANGELOWERLIMIT	IQUANT	13	I/E Range Lower Limit
IERANGEMODE	TOGGLE	F	I/E AutoRange
IERANGE	IQUANT	13	I/E Range
POSFEEDENABLE	TOGGLE	F	Positive Feedback IR Comp
POSFEEDRESISTANCE	QUANT	0	Positive Feedback Resistance (ohm)
ACHSELECT	IQUANT	4	Ach Select
SENSECABLEID	IQUANT	14	Sense Cable ID
PWRCABLEID	IQUANT	8	Power Cable ID
DCCALDATE	LABEL	10/1/2025	DC Calibration Date
ACCALDATE	LABEL	10/1/2025	AC Calibration Date
THERMOSELECT	IQUANT	1	Thermo Select
FRAMEWORKVERSION	LABEL	7.10.1	Framework Version
INSTRUMENTVERSION	LABEL	4.80	Instrument Version
COMMVERSION	LABEL	5.10	Communications Version
CPUPLDVERSION	LABEL	6.00	CPU PLD Version
CTRLPLDVERSION	LABEL	3.21	CTRL PLD Version
PSTATPLDVERSION	LABEL	0.00	PSTAT PLD Version
BOOSTERDCCALDATE	LABEL	10/1/2025	Booster DC Calibration Date
ZCURVE	TABLE
	Pt	Time	Freq	Zreal	Zimag	Zsig	Zmod	Zphz	Idc	Vdc	IERange	Imod	Vmod	Temp
	#	s	Hz	ohm	ohm	V	ohm	°	A	V	#	A	V	°C
	0	4	100078,1	0,0136599	0,0093129	1	0,0165325	34,28505	1,285901	1,519632	13	0,3035135	0,0049966	64,18448
	1	6	79453,13	0,013413	0,0075888	1	0,015411	29,50027	1,287325	1,519623	13	0,4130548	0,0063446	64,18954
	2	7	63140,62	0,0132078	0,0061882	1	0,0145856	25,10439	1,28482	1,519621	13	0,430467	0,0062614	64,19047
	3	10	50203,12	0,0130142	0,0050499	1	0,0139596	21,20765	1,286672	1,519612	13	0,4416131	0,006151	64,19137
	4	11	39890,62	0,0128585	0,0041128	1	0,0135002	17,73703	1,287173	1,519632	13	0,4516317	0,0060867	64,18543
	5	13	31640,63	0,0127252	0,0033457	1	0,0131577	14,73095	1,287526	1,519632	13	0,4575445	0,0060127	64,18588
	6	14	25171,88	0,0126229	0,0027171	1	0,012912	12,14778	1,28615	1,519619	13	0,4564654	0,0058887	64,1915
	7	16	20015,62	0,0125357	0,0022063	1	0,0127284	9,98205	1,285891	1,519614	13	0,453763	0,0057722	64,19183
	8	18	15890,62	0,0124679	0,0017827	1	0,0125947	8,137222	1,286579	1,519625	13	0,449737	0,005662	64,19314
	9	19	12609,38	0,0124124	0,0014343	1	0,012495	6,591659	1,287336	1,519618	13	0,4411527	0,0055108	64,19032
	10	21	10078,13	0,0123737	0,0011556	1	0,0124276	5,33547	1,286656	1,519615	13	0,431837	0,0053658	64,20125
	11	23	8015,625	0,012339	0,0009199	1	0,0123732	4,263676	1,287334	1,519629	13	0,4264113	0,0052755	64,19254
	12	24	6328,125	0,0123125	0,0007192	1	0,0123335	3,343074	1,286642	1,519624	13	0,4216113	0,0051996	64,19439
	13	26	5015,625	0,0123006	0,0005587	1	0,0123133	2,600396	1,286268	1,519619	13	0,4167462	0,0051313	64,18807
	14	27	3984,375	0,0122861	0,0004213	1	0,0122934	1,964084	1,284682	1,519625	13	0,4136861	0,0050855	64,19075
	15	29	3170,956	0,0122771	0,0002996	1	0,0122808	1,397753	1,284262	1,51963	13	0,4115373	0,0050539	64,18312
	16	31	2527,573	0,0122731	0,0001949	1	0,0122746	0,9097177	1,284134	1,519624	13	0,4102443	0,0050356	64,17799
	17	32	1976,103	0,0122765	9,314617E-005	1	0,0122768	0,4347165	1,28295	1,519613	13	0,4091461	0,005023	64,17786
	18	34	1577,524	0,0122897	6,91725E-006	1	0,0122897	0,0322488	1,284847	1,519633	13	0,407992	0,0050141	64,1757
	19	35	1265,625	0,0123036	-7,064913E-005	1	0,0123038	-0,3289965	1,284564	1,519627	13	0,4069728	0,0050073	64,18375
	20	37	998,264	0,012326	-0,0001575	1	0,012327	-0,7318986	1,28264	1,519619	13	0,4060883	0,0050058	64,17741
	21	38	796,875	0,0123528	-0,0002365	1	0,0123551	-1,096725	1,2842	1,519625	13	0,404927	0,0050029	64,18942
	22	40	627,7902	0,012392	-0,0003168	1	0,0123961	-1,464455	1,283427	1,519609	13	0,4034138	0,0050007	64,17992
	23	41	505,5147	0,0124327	-0,0004022	1	0,0124392	-1,85268	1,284877	1,519634	13	0,3959756	0,0049637	64,17845
	24	43	397,9953	0,0124854	-0,0004935	1	0,0124951	-2,263591	1,284613	1,519597	13	0,4018695	0,0050441	64,16548
	25	45	315,5048	0,012545	-0,0005899	1	0,0125588	-2,692354	1,285818	1,519619	13	0,3977021	0,0050082	64,17014
	26	46	252,4038	0,0126106	-0,0006928	1	0,0126296	-3,144603	1,285669	1,519629	13	0,3950337	0,0049975	64,16364
	27	48	198,6229	0,0126932	-0,0008174	1	0,0127195	-3,684436	1,285409	1,519623	13	0,3922462	0,0049942	64,17875
	28	49	158,3615	0,0127818	-0,0009527	1	0,0128172	-4,262826	1,285523	1,519625	13	0,3895401	0,004996	64,16798
	29	51	125,558	0,0128892	-0,0011059	1	0,0129365	-4,90406	1,286993	1,519621	13	0,3859934	0,0049954	64,16448
	30	52	100,4464	0,0130136	-0,0012764	1	0,013076	-5,601803	1,286212	1,51961	13	0,3818714	0,0049946	64,17242
	31	54	79,00281	0,0131673	-0,0014864	1	0,0132509	-6,440441	1,287142	1,519633	13	0,3769026	0,0049951	64,16418
	32	56	63,3446	0,0133476	-0,0017029	1	0,0134557	-7,270637	1,286597	1,519624	13	0,3710745	0,0049936	64,16447
	33	57	50,22321	0,0135729	-0,0019543	1	0,0137129	-8,193534	1,286998	1,519622	13	0,3633873	0,0049834	64,16595
	34	59	38,42213	0,0138829	-0,0022746	1	0,014068	-9,304854	1,288152	1,51963	13	0,3522657	0,0049559	64,1564
	35	61	31,25	0,0141709	-0,002533	1	0,0143955	-10,13433	1,286732	1,519605	13	0,3421488	0,0049255	64,15681
	36	62	24,93351	0,0145236	-0,0028226	1	0,0147953	-10,99801	1,288971	1,519624	13	0,3257342	0,0048194	64,15942
	37	64	19,86229	0,0149571	-0,0031208	1	0,0152792	-11,78577	1,286087	1,519618	13	0,3537207	0,0054046	64,1363
	38	65	15,625	0,01546	-0,0034561	1	0,0158416	-12,60122	1,284084	1,519611	13	0,315523	0,0049984	64,15202
	39	67	12,40079	0,0159573	-0,003771	1	0,0163969	-13,29621	1,281595	1,5196	13	0,3056495	0,0050117	64,14365
	40	68	9,93114	0,0164241	-0,0040883	1	0,0169253	-13,9781	1,285306	1,519614	13	0,2944611	0,0049838	64,14513
	41	70	7,944915	0,0169306	-0,0044463	1	0,0175047	-14,7147	1,28534	1,519607	13	0,2861012	0,0050081	64,14143
	42	71	6,317385	0,0174677	-0,0048726	1	0,0181346	-15,58639	1,287136	1,519623	13	0,2754523	0,0049952	64,13721
	43	74	5,008013	0,0181078	-0,005391	1	0,0188933	-16,57912	1,286837	1,519618	13	0,2649122	0,0050051	64,13326
	44	76	3,945707	0,0188986	-0,0059948	1	0,0198266	-17,59959	1,287475	1,519614	13	0,2521206	0,0049987	64,12566
	45	80	3,158693	0,0198094	-0,0066339	1	0,0208907	-18,51488	1,286284	1,519606	13	0,2393886	0,005001	64,11394
	46	83	2,504006	0,020968	-0,0072874	1	0,0221982	-19,16483	1,286352	1,519616	13	0,2180635	0,0048472	64,11464
	47	87	1,998082	0,0223335	-0,0078572	1	0,0236753	-19,38243	1,287204	1,519618	13	0,2146921	0,0050875	64,11994
	48	91	1,584686	0,0239652	-0,0082464	1	0,0253443	-18,98828	1,287753	1,519616	13	0,1987966	0,0050413	64,12485
	49	96	1,266892	0,0256709	-0,0083235	1	0,0269866	-17,96475	1,289364	1,519616	13	0,1856409	0,0050117	64,13599
	50	103	0,999041	0,0274799	-0,008056	1	0,0286364	-16,3391	1,289146	1,519616	13	0,1749463	0,005011	64,14321
	51	109	0,7923428	0,0290873	-0,0074697	1	0,0300311	-14,40257	1,290245	1,519613	13	0,1665965	0,0050038	64,1516
	52	117	0,6334459	0,0304235	-0,0067041	1	0,0311534	-12,42706	1,28822	1,519613	13	0,1603069	0,0049946	64,15186
	53	125	0,5040323	0,0314815	-0,0057898	1	0,0320095	-10,42096	1,289259	1,519615	13	0,1563502	0,005005	64,13992
	54	136	0,400641	0,0322656	-0,0048202	1	0,0326236	-8,496659	1,28747	1,519617	13	0,153402	0,0050047	64,15852
	55	150	0,316723	0,0328296	-0,0040315	1	0,0330762	-7,000948	1,28926	1,519615	13	0,1510838	0,0049974	64,17801
	56	165	0,2520161	0,033176	-0,0032589	1	0,0333357	-5,610185	1,290045	1,519616	13	0,1499796	0,0049998	64,19369
	57	186	0,2003205	0,033347	-0,0026344	1	0,0334509	-4,516967	1,291097	1,519615	13	0,1494636	0,0049997	64,19985
	58	207	0,1588983	0,0335327	-0,002079	1	0,0335971	-3,547826	1,292932	1,519617	13	0,148852	0,005001	64,21032
	59	233	0,1260081	0,0336301	-0,0017663	1	0,0336765	-3,006424	1,29068	1,519614	13	0,1484371	0,0049989	64,21087
	60	271	0,1001603	0,0337447	-0,0014296	1	0,033775	-2,42582	1,28836	1,519614	13	0,1480506	0,0050004	64,21333
