EXPLAIN
TAG	EISPOT
TITLE	LABEL	Potentiostatic EIS	Test Identifier
DATE	LABEL	5/8/2026	Date
TIME	LABEL	0:09:39	Time
NOTES	NOTES	1	Notes...
	
PSTAT	PSTAT	REF3000-46189	Potentiostat
VDC	POTEN	1,51555E+000	F	Last Measured Potential (V)
FREQINIT	QUANT	1,00000E+005	Initial Freq. (Hz)
FREQFINAL	QUANT	1,00000E-001	Final Freq. (Hz)
PTSPERDEC	QUANT	1,00000E+001	Points/decade
VAC	QUANT	5,00000E+000	AC Voltage (mV rms)
AREA	QUANT	2,50000E+001	Sample Area (cm^2)
SPEED	SELECTOR	1	Optimize for:
DRIFTCOR	SELECTOR	0	Drift Correction
THD	SELECTOR	0	THD
ZGUESS	QUANT	2,00000E-002	Estimated Z (ohms)
EOC	QUANT	0,5354317	Open Circuit (V)
SEQUENCER	TOGGLE	TRUE	Run as Sequence
PSTATMODEL	IQUANT	6	Pstat Model
PSTATSECTION	LABEL	REF30K-46189	Pstat Section
PSTATSERIALNO	LABEL	46189	Pstat Serial Number
CTRLMODE	IQUANT	1	Control Mode
ELECTROMETER	IQUANT	0	RE=0 or CS=1
IESTAB	IQUANT	0	I/E Stability
CASPEED	IQUANT	3	Control Amp Speed
CONVENTION	IQUANT	1	Current Convention
ICHRANGE	IQUANT	2	Ich Range
ICHRANGEMODE	TOGGLE	F	Ich Auto Range
ICHOFFSETENABLE	TOGGLE	T	Ich Offset Enable
ICHOFFSET	QUANT	0	Ich Offset (V)
ICHFILTER	IQUANT	3	Ich Filter
VCHRANGE	IQUANT	2	Vch Range
VCHRANGEMODE	TOGGLE	F	Vch Auto Range
VCHOFFSETENABLE	TOGGLE	T	Vch Offset Enable
VCHOFFSET	QUANT	0	Vch Offset (V)
VCHFILTER	IQUANT	3	Vch Filter
ACHRANGE	IQUANT	2	Ach Range
ACHOFFSETENABLE	TOGGLE	F	Ach Offset Enable
ACHOFFSET	QUANT	0	Ach Offset (V)
ACHFILTER	IQUANT	1	Ach Filter
IERANGELOWERLIMIT	IQUANT	13	I/E Range Lower Limit
IERANGEMODE	TOGGLE	F	I/E AutoRange
IERANGE	IQUANT	13	I/E Range
POSFEEDENABLE	TOGGLE	F	Positive Feedback IR Comp
POSFEEDRESISTANCE	QUANT	0	Positive Feedback Resistance (ohm)
ACHSELECT	IQUANT	4	Ach Select
SENSECABLEID	IQUANT	14	Sense Cable ID
PWRCABLEID	IQUANT	8	Power Cable ID
DCCALDATE	LABEL	10/1/2025	DC Calibration Date
ACCALDATE	LABEL	10/1/2025	AC Calibration Date
THERMOSELECT	IQUANT	1	Thermo Select
FRAMEWORKVERSION	LABEL	7.10.1	Framework Version
INSTRUMENTVERSION	LABEL	4.80	Instrument Version
COMMVERSION	LABEL	5.10	Communications Version
CPUPLDVERSION	LABEL	6.00	CPU PLD Version
CTRLPLDVERSION	LABEL	3.21	CTRL PLD Version
PSTATPLDVERSION	LABEL	0.00	PSTAT PLD Version
BOOSTERDCCALDATE	LABEL	10/1/2025	Booster DC Calibration Date
ZCURVE	TABLE
	Pt	Time	Freq	Zreal	Zimag	Zsig	Zmod	Zphz	Idc	Vdc	IERange	Imod	Vmod	Temp
	#	s	Hz	ohm	ohm	V	ohm	°	A	V	#	A	V	°C
	0	4	100078,1	0,0139413	0,0068828	1	0,0155478	26,27531	1,295081	1,513671	13	0,3225011	0,0049929	62,90536
	1	6	79453,13	0,0137007	0,0056499	1	0,0148199	22,41018	1,295407	1,513672	13	0,4396375	0,0064939	62,90363
	2	8	63140,62	0,0134965	0,0046326	1	0,0142694	18,9444	1,294955	1,513679	13	0,4492351	0,0063928	62,90518
	3	10	50203,12	0,0133211	0,0038119	1	0,0138558	15,96875	1,295463	1,513675	13	0,4511472	0,0062371	62,89433
	4	11	39890,62	0,0131706	0,0031163	1	0,0135343	13,31203	1,293651	1,513672	13	0,454866	0,0061457	62,89423
	5	13	31640,63	0,0130483	0,0025435	1	0,0132939	11,03025	1,293949	1,51367	13	0,4549184	0,00604	62,88705
	6	16	25171,88	0,0129494	0,0020762	1	0,0131147	9,108724	1,29461	1,51367	13	0,4497192	0,0058927	62,88765
	7	18	20015,62	0,0128711	0,001687	1	0,0129812	7,46696	1,293789	1,513672	13	0,4442257	0,0057631	62,87785
	8	19	15890,62	0,012812	0,0013657	1	0,0128846	6,084275	1,293687	1,513681	13	0,4379988	0,0056412	62,87823
	9	21	12609,38	0,0127552	0,0011006	1	0,0128025	4,931687	1,292962	1,513663	13	0,427664	0,0054738	62,88083
	10	22	10078,13	0,0127228	0,0008853	1	0,0127536	3,980346	1,29427	1,513662	13	0,4189903	0,0053427	62,86963
	11	24	8015,625	0,0126941	0,0007038	1	0,0127136	3,173505	1,294751	1,513682	13	0,4130723	0,0052511	62,87463
	12	26	6328,125	0,0126724	0,0005444	1	0,0126841	2,459701	1,294411	1,513679	13	0,4082891	0,0051784	62,86415
	13	27	5015,625	0,0126552	0,0004156	1	0,012662	1,881136	1,294324	1,513682	13	0,4042985	0,005119	62,87771
	14	29	3984,375	0,0126432	0,000305	1	0,0126469	1,381754	1,292904	1,513675	13	0,4012654	0,0050746	62,86749
	15	30	3170,956	0,0126386	0,0002061	1	0,0126402	0,9340808	1,293435	1,513669	13	0,3995323	0,0050501	62,87644
	16	32	2527,573	0,0126352	0,0001178	1	0,0126357	0,534277	1,293545	1,513671	13	0,3978388	0,0050269	62,87135
	17	34	1976,103	0,0126446	2,809773E-005	1	0,0126447	0,127317	1,29344	1,513668	13	0,3972143	0,0050226	62,87147
	18	35	1577,524	0,0126528	-4,820091E-005	1	0,0126529	-0,2182667	1,294464	1,513684	13	0,3958604	0,0050088	62,87177
	19	37	1265,625	0,0126709	-0,00012	1	0,0126715	-0,5428219	1,293676	1,513677	13	0,3953533	0,0050097	62,87739
	20	39	998,264	0,0126959	-0,0001946	1	0,0126974	-0,8779905	1,29467	1,513674	13	0,3941412	0,0050046	62,87914
	21	40	796,875	0,0127223	-0,0002671	1	0,0127251	-1,202743	1,294024	1,513668	13	0,3931704	0,0050031	62,88076
	22	42	627,7902	0,0127673	-0,0003454	1	0,012772	-1,549695	1,296005	1,513672	13	0,3913788	0,0049987	62,87249
	23	43	505,5147	0,0128081	-0,0004263	1	0,0128152	-1,906526	1,295484	1,51367	13	0,3844113	0,0049644	62,88208
	24	45	397,9953	0,012861	-0,0005169	1	0,0128714	-2,301763	1,295257	1,513663	13	0,3902194	0,0050453	62,88468
	25	47	315,5048	0,01292	-0,0006114	1	0,0129345	-2,709157	1,296305	1,513661	13	0,3860069	0,0050063	62,87717
	26	48	252,4038	0,012988	-0,0007129	1	0,0130076	-3,141799	1,29586	1,513659	13	0,3835754	0,0049977	62,87217
	27	50	198,6229	0,0130716	-0,0008384	1	0,0130985	-3,669668	1,294736	1,51366	13	0,3809196	0,0049945	62,87463
	28	51	158,3615	0,013164	-0,0009729	1	0,0131999	-4,226869	1,294817	1,513668	13	0,3782695	0,0049963	62,86966
	29	53	125,558	0,0132744	-0,0011298	1	0,0133224	-4,864739	1,295079	1,513655	13	0,3749046	0,0049966	62,86477
	30	54	100,4464	0,0134007	-0,0012998	1	0,0134636	-5,540152	1,295289	1,513662	13	0,3709777	0,0049959	62,86141
	31	56	79,00281	0,0135647	-0,0015125	1	0,0136487	-6,362304	1,297455	1,513676	13	0,3659922	0,0049961	62,87531
	32	58	63,3446	0,0137399	-0,0017285	1	0,0138482	-7,170276	1,295394	1,513671	13	0,3605494	0,0049935	62,8733
	33	59	50,22321	0,0139662	-0,0019783	1	0,0141056	-8,062377	1,295682	1,513664	13	0,3535452	0,0049873	62,86076
	34	61	38,42213	0,0142821	-0,0023046	1	0,0144668	-9,166273	1,297458	1,513652	13	0,3431059	0,0049638	62,8621
	35	63	31,25	0,0145683	-0,002559	1	0,0147914	-9,96282	1,295898	1,513677	13	0,3338183	0,0049378	62,86724
	36	65	24,93351	0,0149195	-0,0028562	1	0,0151905	-10,83768	1,29639	1,513673	13	0,3189515	0,0048451	62,87342
	37	66	19,86229	0,0153573	-0,0031734	1	0,0156817	-11,67526	1,294346	1,513659	13	0,3407732	0,005344	62,86394
	38	68	15,625	0,0158849	-0,0035173	1	0,0162696	-12,48535	1,290421	1,513668	13	0,3073084	0,0049998	62,86802
	39	69	12,40079	0,0163609	-0,003834	1	0,0168041	-13,18876	1,291793	1,513667	13	0,2976299	0,0050014	62,85968
	40	71	9,93114	0,0168423	-0,0041636	1	0,0173493	-13,88565	1,29329	1,513661	13	0,2882369	0,0050007	62,86361
	41	72	7,944915	0,0173494	-0,0045303	1	0,0179312	-14,63447	1,292889	1,51365	13	0,2785392	0,0049945	62,85795
	42	74	6,317385	0,0178928	-0,0049731	1	0,0185711	-15,53279	1,293792	1,513647	13	0,2692586	0,0050004	62,86016
	43	76	5,008013	0,0185531	-0,0054841	1	0,0193466	-16,46701	1,296119	1,513662	13	0,2585809	0,0050027	62,85379
	44	79	3,945707	0,0193367	-0,0061477	1	0,0202905	-17,63705	1,295822	1,513658	13	0,2463557	0,0049987	62,85189
	45	81	3,158693	0,0202477	-0,0068105	1	0,0213624	-18,59093	1,295787	1,513654	13	0,2341397	0,0050018	62,85244
	46	85	2,504006	0,0214132	-0,0075208	1	0,0226955	-19,35238	1,295741	1,513655	13	0,2133232	0,0048481	62,85846
	47	89	1,998082	0,0228075	-0,0081541	1	0,0242213	-19,67294	1,296803	1,513656	13	0,2098856	0,0050883	62,86578
	48	93	1,584686	0,0244895	-0,008572	1	0,0259464	-19,29147	1,297742	1,51366	13	0,1942183	0,0050422	62,87424
	49	97	1,266892	0,0262556	-0,0087295	1	0,0276688	-18,39102	1,29737	1,513661	13	0,1810921	0,0050125	62,88316
	50	104	0,999041	0,0281654	-0,0084798	1	0,0294142	-16,75546	1,296344	1,513659	13	0,1703516	0,0050119	62,8713
	51	111	0,7923428	0,0299088	-0,0078998	1	0,0309345	-14,79566	1,295945	1,513657	13	0,1615193	0,0049973	62,87605
	52	118	0,6334459	0,031343	-0,0071208	1	0,0321417	-12,79976	1,297535	1,513658	13	0,1556564	0,0050035	62,87429
	53	126	0,5040323	0,0325002	-0,0060955	1	0,0330668	-10,6225	1,29587	1,513658	13	0,1511454	0,0049982	62,85434
	54	135	0,400641	0,0333032	-0,0052187	1	0,0337096	-8,905978	1,293075	1,51366	13	0,1484302	0,0050037	62,84024
	55	149	0,316723	0,0339517	-0,0042952	1	0,0342223	-7,210122	1,295142	1,513659	13	0,1460893	0,0049996	62,8502
	56	163	0,2520161	0,034292	-0,0035277	1	0,0344729	-5,873546	1,295031	1,51366	13	0,1450979	0,005002	62,83228
	57	185	0,2003205	0,0346243	-0,002862	1	0,0347424	-4,725247	1,294173	1,513661	13	0,1439428	0,005001	62,84402
	58	211	0,1588983	0,034774	-0,0023937	1	0,0348563	-3,937738	1,293449	1,513659	13	0,1434147	0,0049989	62,8571
	59	237	0,1260081	0,0348575	-0,0018846	1	0,0349084	-3,094691	1,29549	1,513661	13	0,1432697	0,0050013	62,8883
	60	267	0,1001603	0,0350373	-0,0015879	1	0,0350733	-2,594813	1,297153	1,513662	13	0,1425322	0,0049991	62,94851
