EXPLAIN
TAG	EISPOT
TITLE	LABEL	Potentiostatic EIS	Test Identifier
DATE	LABEL	18/6/2026	Date
TIME	LABEL	18:15:43	Time
NOTES	NOTES	1	Notes...
	
PSTAT	PSTAT	REF3000-46189	Potentiostat
VDC	POTEN	1,64893E+000	F	Last Measured Potential (V)
FREQINIT	QUANT	1,00000E+005	Initial Freq. (Hz)
FREQFINAL	QUANT	1,00000E-001	Final Freq. (Hz)
PTSPERDEC	QUANT	1,00000E+001	Points/decade
VAC	QUANT	5,00000E+000	AC Voltage (mV rms)
AREA	QUANT	2,50000E+001	Sample Area (cm^2)
SPEED	SELECTOR	1	Optimize for:
DRIFTCOR	SELECTOR	0	Drift Correction
THD	SELECTOR	0	THD
ZGUESS	QUANT	2,00000E-002	Estimated Z (ohms)
EOC	QUANT	0,7736193	Open Circuit (V)
SEQUENCER	TOGGLE	TRUE	Run as Sequence
PSTATMODEL	IQUANT	6	Pstat Model
PSTATSECTION	LABEL	REF30K-46189	Pstat Section
PSTATSERIALNO	LABEL	46189	Pstat Serial Number
CTRLMODE	IQUANT	1	Control Mode
ELECTROMETER	IQUANT	0	RE=0 or CS=1
IESTAB	IQUANT	0	I/E Stability
CASPEED	IQUANT	3	Control Amp Speed
CONVENTION	IQUANT	1	Current Convention
ICHRANGE	IQUANT	2	Ich Range
ICHRANGEMODE	TOGGLE	F	Ich Auto Range
ICHOFFSETENABLE	TOGGLE	T	Ich Offset Enable
ICHOFFSET	QUANT	0	Ich Offset (V)
ICHFILTER	IQUANT	3	Ich Filter
VCHRANGE	IQUANT	2	Vch Range
VCHRANGEMODE	TOGGLE	F	Vch Auto Range
VCHOFFSETENABLE	TOGGLE	T	Vch Offset Enable
VCHOFFSET	QUANT	0	Vch Offset (V)
VCHFILTER	IQUANT	3	Vch Filter
ACHRANGE	IQUANT	2	Ach Range
ACHOFFSETENABLE	TOGGLE	F	Ach Offset Enable
ACHOFFSET	QUANT	0	Ach Offset (V)
ACHFILTER	IQUANT	1	Ach Filter
IERANGELOWERLIMIT	IQUANT	13	I/E Range Lower Limit
IERANGEMODE	TOGGLE	F	I/E AutoRange
IERANGE	IQUANT	13	I/E Range
POSFEEDENABLE	TOGGLE	F	Positive Feedback IR Comp
POSFEEDRESISTANCE	QUANT	0	Positive Feedback Resistance (ohm)
ACHSELECT	IQUANT	4	Ach Select
SENSECABLEID	IQUANT	14	Sense Cable ID
PWRCABLEID	IQUANT	8	Power Cable ID
DCCALDATE	LABEL	10/1/2025	DC Calibration Date
ACCALDATE	LABEL	10/1/2025	AC Calibration Date
THERMOSELECT	IQUANT	1	Thermo Select
FRAMEWORKVERSION	LABEL	7.10.1	Framework Version
INSTRUMENTVERSION	LABEL	4.80	Instrument Version
COMMVERSION	LABEL	5.10	Communications Version
CPUPLDVERSION	LABEL	6.00	CPU PLD Version
CTRLPLDVERSION	LABEL	3.21	CTRL PLD Version
PSTATPLDVERSION	LABEL	0.00	PSTAT PLD Version
BOOSTERDCCALDATE	LABEL	10/1/2025	Booster DC Calibration Date
ZCURVE	TABLE
	Pt	Time	Freq	Zreal	Zimag	Zsig	Zmod	Zphz	Idc	Vdc	IERange	Imod	Vmod	Temp
	#	s	Hz	ohm	ohm	V	ohm	°	A	V	#	A	V	°C
	0	4	100078,1	0,0141213	0,0067733	1	0,0156617	25,62491	8,586915	1,646666	13	0,3205547	0,0049992	63,48271
	1	5	79453,13	0,0138813	0,0055644	1	0,0149551	21,84356	8,582534	1,646656	13	0,4331332	0,0064562	63,47109
	2	7	63140,62	0,0136727	0,0045698	1	0,0144162	18,4809	8,582536	1,646663	13	0,4392658	0,0063152	63,47284
	3	8	50203,12	0,0134962	0,0037562	1	0,0140091	15,55269	8,582829	1,646647	13	0,4427555	0,0061888	63,48318
	4	10	39890,62	0,0133407	0,0030742	1	0,0136903	12,97647	8,585024	1,646661	13	0,4545054	0,0062116	63,47495
	5	11	31640,63	0,0132165	0,0025095	1	0,0134527	10,75127	8,581988	1,646627	13	0,4540533	0,0061006	63,48043
	6	13	25171,88	0,0131221	0,0020499	1	0,0132813	8,878891	8,58147	1,646655	13	0,4525059	0,0060046	63,47851
	7	14	20015,62	0,0130448	0,0016733	1	0,0131516	7,309477	8,577986	1,646651	13	0,449072	0,0059025	63,48804
	8	16	15890,62	0,0129793	0,0013535	1	0,0130497	5,953329	8,579445	1,646656	13	0,4431887	0,0057812	63,48064
	9	18	12609,38	0,0129324	0,0010982	1	0,0129789	4,85372	8,580397	1,646638	13	0,4367195	0,0056667	63,48135
	10	20	10078,13	0,0128945	0,0008878	1	0,012925	3,938808	8,580864	1,64666	13	0,4246263	0,0054874	63,48791
	11	21	8015,625	0,0128638	0,0007114	1	0,0128835	3,165566	8,581174	1,646659	13	0,4177138	0,005381	63,49051
	12	23	6328,125	0,0128382	0,000561	1	0,0128505	2,501907	8,580297	1,646649	13	0,4114193	0,0052866	63,49274
	13	24	5015,625	0,0128246	0,0004364	1	0,0128321	1,948778	8,579638	1,646663	13	0,4052712	0,0052002	63,47238
	14	26	3984,375	0,0128091	0,0003292	1	0,0128133	1,472072	8,581249	1,646662	13	0,4008942	0,0051366	63,47882
	15	28	3170,956	0,012793	0,0002389	1	0,0127952	1,070004	8,581058	1,646646	13	0,397444	0,0050853	63,47348
	16	29	2527,573	0,0127926	0,0001583	1	0,0127936	0,7089034	8,57989	1,646655	13	0,3949836	0,0050532	63,47637
	17	31	1976,103	0,0127946	7,904968E-005	1	0,0127948	0,3539898	8,578564	1,646643	13	0,3937008	0,0050373	63,46867
	18	33	1577,524	0,012805	8,35114E-006	1	0,012805	0,037367	8,577765	1,64666	13	0,3922878	0,0050232	63,4623
	19	34	1265,625	0,0128158	-5,207774E-005	1	0,0128159	-0,2328238	8,575349	1,646654	13	0,3908819	0,0050095	63,45985
	20	36	998,264	0,0128376	-0,0001119	1	0,0128381	-0,4992065	8,573545	1,646637	13	0,3900511	0,0050075	63,44842
	21	37	796,875	0,0128631	-0,0001739	1	0,0128643	-0,7747544	8,570548	1,64663	13	0,389183	0,0050066	63,4589
	22	39	627,7902	0,012896	-0,0002276	1	0,012898	-1,01106	8,57121	1,646651	13	0,3872117	0,0049943	63,45805
	23	40	505,5147	0,0129303	-0,0002933	1	0,0129336	-1,299326	8,569504	1,646655	13	0,3807238	0,0049622	63,43993
	24	42	397,9953	0,0129753	-0,0003546	1	0,0129801	-1,565344	8,567867	1,646632	13	0,3864898	0,0050393	63,43889
	25	43	315,5048	0,0130267	-0,0004182	1	0,0130334	-1,838814	8,567901	1,646638	13	0,3832049	0,005008	63,44036
	26	45	252,4038	0,0130811	-0,0004811	1	0,01309	-2,106275	8,56759	1,646635	13	0,3812252	0,0049986	63,44269
	27	47	198,6229	0,0131486	-0,0005548	1	0,0131603	-2,416003	8,569091	1,646639	13	0,3790136	0,004993	63,44257
	28	48	158,3615	0,0132251	-0,0006294	1	0,0132401	-2,724748	8,568141	1,646646	13	0,3772295	0,0049977	63,42707
	29	50	125,558	0,0133161	-0,0007116	1	0,0133351	-3,058774	8,569069	1,646664	13	0,3745192	0,0049962	63,42879
	30	51	100,4464	0,0134139	-0,000795	1	0,0134375	-3,391876	8,567855	1,646639	13	0,371765	0,0049968	63,40829
	31	53	79,00281	0,0135363	-0,0008904	1	0,0135655	-3,763419	8,568254	1,646648	13	0,3681395	0,0049948	63,41362
	32	54	63,3446	0,0136664	-0,0009831	1	0,0137017	-4,114712	8,564218	1,646621	13	0,364334	0,0049925	63,41425
	33	56	50,22321	0,013813	-0,0010874	1	0,0138558	-4,501112	8,565714	1,646641	13	0,3597583	0,004985	63,40688
	34	58	38,42213	0,0140167	-0,0011987	1	0,0140678	-4,887869	8,565981	1,646647	13	0,3526936	0,0049618	63,40955
	35	59	31,25	0,0141908	-0,0012852	1	0,0142489	-5,175061	8,564202	1,64664	13	0,3461093	0,0049318	63,40519
	36	61	24,93351	0,0144135	-0,0013756	1	0,014479	-5,451743	8,561138	1,646636	13	0,3339647	0,0048356	63,39381
	37	63	19,86229	0,0146296	-0,0014451	1	0,0147008	-5,641316	8,564343	1,646626	13	0,3648159	0,0053631	63,39701
	38	64	15,625	0,0149428	-0,0015424	1	0,0150221	-5,893398	8,562757	1,646654	13	0,3329212	0,0050012	63,39183
	39	65	12,40079	0,0152034	-0,0015271	1	0,0152799	-5,735764	8,562814	1,646625	13	0,327692	0,0050071	63,38437
	40	67	9,93114	0,0155068	-0,0015259	1	0,0155816	-5,620008	8,560736	1,646636	13	0,3204879	0,0049937	63,3928
	41	69	7,944915	0,0158595	-0,0014847	1	0,0159288	-5,348276	8,562058	1,646626	13	0,3140392	0,0050023	63,39493
	42	71	6,317385	0,0161216	-0,0013696	1	0,0161797	-4,855799	8,560313	1,646641	13	0,3090094	0,0049997	63,37827
	43	73	5,008013	0,0163621	-0,0013471	1	0,0164174	-4,706535	8,559472	1,646639	13	0,3047016	0,0050024	63,37554
	44	75	3,945707	0,0165129	-0,0011149	1	0,0165505	-3,862555	8,558644	1,646635	13	0,30199	0,0049981	63,37427
	45	78	3,158693	0,0166918	-0,0009677	1	0,0167198	-3,318097	8,558203	1,646636	13	0,2989824	0,0049989	63,36933
	46	81	2,504006	0,0167912	-0,0008483	1	0,0168126	-2,892096	8,56007	1,646642	13	0,2879825	0,0048483	63,36981
	47	85	1,998082	0,01689	-0,0007497	1	0,0169066	-2,541415	8,559568	1,646641	13	0,3007243	0,0050888	63,37996
	48	89	1,584686	0,0169633	-0,0006174	1	0,0169745	-2,084403	8,561908	1,646639	13	0,2967413	0,00504	63,38266
	49	94	1,266892	0,0170033	-0,0005247	1	0,0170114	-1,767629	8,560581	1,646646	13	0,294514	0,005012	63,38007
	50	100	0,999041	0,0170818	-0,0004496	1	0,0170877	-1,507694	8,558798	1,646646	13	0,2927082	0,0050029	63,3781
	51	106	0,7923428	0,0171324	-0,0003723	1	0,0171365	-1,244997	8,55642	1,646639	13	0,2919004	0,0050029	63,35442
	52	112	0,6334459	0,0171208	-0,0003289	1	0,017124	-1,100531	8,553259	1,646639	13	0,2923341	0,0050064	63,35355
	53	122	0,5040323	0,0171385	-0,0002924	1	0,017141	-0,977531	8,55126	1,646638	13	0,2913998	0,0049952	63,35999
	54	131	0,400641	0,0171864	-0,0002417	1	0,0171881	-0,8055633	8,555103	1,646638	13	0,2911659	0,0050048	63,38145
	55	145	0,316723	0,0172152	-0,0001814	1	0,0172161	-0,6036323	8,556776	1,646639	13	0,2903037	0,004998	63,39065
	56	160	0,2520161	0,0172037	-0,0002067	1	0,0172049	-0,6883897	8,556055	1,646644	13	0,2909575	0,005006	63,39244
	57	177	0,2003205	0,0172701	-0,0001839	1	0,017271	-0,6101825	8,556977	1,646642	13	0,2893667	0,0049977	63,40934
	58	204	0,1588983	0,01718	-0,0002005	1	0,0171812	-0,668657	8,548213	1,646644	13	0,2909499	0,0049989	63,35693
	59	229	0,1260081	0,0173097	-0,0001526	1	0,0173104	-0,5052242	8,542221	1,646645	13	0,2888833	0,0050007	63,35844
	60	267	0,1001603	0,0172691	-0,000185	1	0,0172701	-0,6136437	8,540484	1,646641	13	0,2895693	0,0050009	63,33537
