EXPLAIN
TAG	EISPOT
TITLE	LABEL	Potentiostatic EIS	Test Identifier
DATE	LABEL	11/9/2026	Date
TIME	LABEL	2:14:35	Time
NOTES	NOTES	1	Notes...
	
PSTAT	PSTAT	REF3000-46189	Potentiostat
VDC	POTEN	1,80991E+000	F	Last Measured Potential (V)
FREQINIT	QUANT	1,00000E+005	Initial Freq. (Hz)
FREQFINAL	QUANT	1,00000E-001	Final Freq. (Hz)
PTSPERDEC	QUANT	1,00000E+001	Points/decade
VAC	QUANT	5,00000E+000	AC Voltage (mV rms)
AREA	QUANT	2,50000E+001	Sample Area (cm^2)
SPEED	SELECTOR	1	Optimize for:
DRIFTCOR	SELECTOR	0	Drift Correction
THD	SELECTOR	0	THD
ZGUESS	QUANT	2,00000E-002	Estimated Z (ohms)
EOC	QUANT	0,4328571	Open Circuit (V)
SEQUENCER	TOGGLE	TRUE	Run as Sequence
PSTATMODEL	IQUANT	6	Pstat Model
PSTATSECTION	LABEL	REF30K-46189	Pstat Section
PSTATSERIALNO	LABEL	46189	Pstat Serial Number
CTRLMODE	IQUANT	1	Control Mode
ELECTROMETER	IQUANT	0	RE=0 or CS=1
IESTAB	IQUANT	0	I/E Stability
CASPEED	IQUANT	3	Control Amp Speed
CONVENTION	IQUANT	1	Current Convention
ICHRANGE	IQUANT	2	Ich Range
ICHRANGEMODE	TOGGLE	F	Ich Auto Range
ICHOFFSETENABLE	TOGGLE	T	Ich Offset Enable
ICHOFFSET	QUANT	0	Ich Offset (V)
ICHFILTER	IQUANT	3	Ich Filter
VCHRANGE	IQUANT	2	Vch Range
VCHRANGEMODE	TOGGLE	F	Vch Auto Range
VCHOFFSETENABLE	TOGGLE	T	Vch Offset Enable
VCHOFFSET	QUANT	0	Vch Offset (V)
VCHFILTER	IQUANT	3	Vch Filter
ACHRANGE	IQUANT	2	Ach Range
ACHOFFSETENABLE	TOGGLE	F	Ach Offset Enable
ACHOFFSET	QUANT	0	Ach Offset (V)
ACHFILTER	IQUANT	1	Ach Filter
IERANGELOWERLIMIT	IQUANT	13	I/E Range Lower Limit
IERANGEMODE	TOGGLE	F	I/E AutoRange
IERANGE	IQUANT	13	I/E Range
POSFEEDENABLE	TOGGLE	F	Positive Feedback IR Comp
POSFEEDRESISTANCE	QUANT	0	Positive Feedback Resistance (ohm)
ACHSELECT	IQUANT	4	Ach Select
SENSECABLEID	IQUANT	14	Sense Cable ID
PWRCABLEID	IQUANT	8	Power Cable ID
DCCALDATE	LABEL	10/1/2025	DC Calibration Date
ACCALDATE	LABEL	10/1/2025	AC Calibration Date
THERMOSELECT	IQUANT	1	Thermo Select
FRAMEWORKVERSION	LABEL	7.10.1	Framework Version
INSTRUMENTVERSION	LABEL	4.80	Instrument Version
COMMVERSION	LABEL	5.10	Communications Version
CPUPLDVERSION	LABEL	6.00	CPU PLD Version
CTRLPLDVERSION	LABEL	3.21	CTRL PLD Version
PSTATPLDVERSION	LABEL	0.00	PSTAT PLD Version
BOOSTERDCCALDATE	LABEL	10/1/2025	Booster DC Calibration Date
ZCURVE	TABLE
	Pt	Time	Freq	Zreal	Zimag	Zsig	Zmod	Zphz	Idc	Vdc	IERange	Imod	Vmod	Temp
	#	s	Hz	ohm	ohm	V	ohm	°	A	V	#	A	V	°C
	0	3	100078,1	0,0134369	0,0092667	1	0,0163224	34,59183	17,4051	1,80692	13	0,3078839	0,0050041	63,44443
	1	5	79453,13	0,0131799	0,0075515	1	0,01519	29,81077	17,40346	1,806919	13	0,4203812	0,0063645	63,44609
	2	7	63140,62	0,0129557	0,0061667	1	0,0143484	25,45365	17,39975	1,806919	13	0,4359195	0,0062377	63,46018
	3	9	50203,12	0,0127562	0,0050342	1	0,0137136	21,53671	17,39882	1,806916	13	0,4475095	0,0061233	63,45394
	4	11	39890,62	0,0125954	0,0041019	1	0,0132465	18,0386	17,39781	1,806914	13	0,4634832	0,006129	63,45676
	5	13	31640,63	0,0124603	0,0033369	1	0,0128994	14,99193	17,39589	1,806901	13	0,4686905	0,0060382	63,44775
	6	14	25171,88	0,0123565	0,0027184	1	0,012652	12,40752	17,39485	1,806908	13	0,4691912	0,005931	63,45538
	7	16	20015,62	0,0122651	0,0022136	1	0,0124632	10,23045	17,39755	1,806921	13	0,4673203	0,0058208	63,44553
	8	17	15890,62	0,0121956	0,0017946	1	0,0123269	8,370848	17,39227	1,80691	13	0,4630423	0,0057056	63,4497
	9	19	12609,38	0,0121389	0,0014502	1	0,0122252	6,812642	17,39339	1,806904	13	0,4572549	0,0055886	63,44244
	10	21	10078,13	0,0120959	0,0011742	1	0,0121528	5,544348	17,39114	1,806913	13	0,4467963	0,0054289	63,45767
	11	22	8015,625	0,0120612	0,0009523	1	0,0120987	4,51461	17,39321	1,806917	13	0,4402682	0,0053261	63,45546
	12	24	6328,125	0,0120328	0,0007526	1	0,0120563	3,579155	17,39343	1,806913	13	0,4351496	0,0052459	63,45685
	13	25	5015,625	0,0120076	0,0005974	1	0,0120225	2,848335	17,39047	1,80691	13	0,4296331	0,005165	63,45462
	14	27	3984,375	0,011989	0,0004738	1	0,0119983	2,262946	17,39018	1,806895	13	0,4260641	0,0051119	63,45637
	15	29	3170,956	0,0119761	0,0003605	1	0,0119815	1,724324	17,3882	1,806902	13	0,4235101	0,0050742	63,44563
	16	30	2527,573	0,0119637	0,0002671	1	0,0119667	1,279206	17,39002	1,806902	13	0,4214565	0,0050434	63,44352
	17	32	1976,103	0,0119641	0,0001829	1	0,0119655	0,8759969	17,38753	1,806904	13	0,4205048	0,0050315	63,44168
	18	34	1577,524	0,0119613	0,0001082	1	0,0119618	0,5180475	17,38898	1,806904	13	0,4191238	0,0050135	63,44184
	19	35	1265,625	0,0119763	3,772465E-005	1	0,0119764	0,1804771	17,38569	1,806893	13	0,4186615	0,005014	63,44672
	20	37	998,264	0,0119855	-2,036636E-005	1	0,0119856	-0,0973595	17,38383	1,806895	13	0,417331	0,0050019	63,44533
	21	38	796,875	0,0120037	-8,920921E-005	1	0,0120041	-0,4258028	17,38285	1,806895	13	0,4164689	0,0049993	63,43619
	22	40	627,7902	0,0120258	-0,0001309	1	0,0120265	-0,6238334	17,38508	1,806916	13	0,415996	0,005003	63,43253
	23	41	505,5147	0,0120531	-0,0001835	1	0,0120545	-0,8721138	17,38725	1,806901	13	0,4081765	0,0049584	63,43576
	24	43	397,9953	0,0120897	-0,0002341	1	0,012092	-1,109241	17,38425	1,806918	13	0,4149106	0,0050397	63,43147
	25	44	315,5048	0,0121297	-0,0002837	1	0,012133	-1,339877	17,37979	1,806898	13	0,4114335	0,0050054	63,4356
	26	46	252,4038	0,0121734	-0,0003307	1	0,0121779	-1,556208	17,38009	1,806902	13	0,4098743	0,0049997	63,4314
	27	47	198,6229	0,0122271	-0,0003827	1	0,0122331	-1,792847	17,37753	1,806892	13	0,4079294	0,0049953	63,42134
	28	49	158,3615	0,0122852	-0,0004334	1	0,0122929	-2,020403	17,37642	1,806895	13	0,4060855	0,0049951	63,41698
	29	50	125,558	0,0123556	-0,0004864	1	0,0123652	-2,254212	17,37475	1,806887	13	0,4039974	0,0049975	63,41823
	30	52	100,4464	0,0124329	-0,0005404	1	0,0124446	-2,489005	17,37637	1,806899	13	0,4013187	0,0049955	63,42742
	31	53	79,00281	0,0125284	-0,0005921	1	0,0125423	-2,705716	17,37175	1,806885	13	0,3980729	0,0049935	63,41749
	32	55	63,3446	0,0126257	-0,0006349	1	0,0126417	-2,878835	17,37193	1,806897	13	0,3948134	0,0049916	63,41938
	33	57	50,22321	0,0127489	-0,000684	1	0,0127672	-3,071127	17,37066	1,806899	13	0,3903948	0,0049846	63,4164
	34	58	38,42213	0,0128933	-0,0007149	1	0,0129131	-3,173661	17,37333	1,806905	13	0,3836993	0,0049549	63,41315
	35	60	31,25	0,013018	-0,0007296	1	0,0130385	-3,207702	17,3695	1,806893	13	0,3773632	0,0049204	63,41035
	36	62	24,93351	0,0131515	-0,0007259	1	0,0131715	-3,159443	17,37068	1,806906	13	0,365689	0,0048168	63,4187
	37	63	19,86229	0,0133029	-0,0006862	1	0,0133206	-2,953005	17,36979	1,806909	13	0,4060738	0,0054092	63,41633
	38	65	15,625	0,0134225	-0,0006445	1	0,0134379	-2,748856	17,36967	1,806881	13	0,3725228	0,005006	63,40738
	39	66	12,40079	0,0135353	-0,0006273	1	0,0135498	-2,65342	17,36233	1,806876	13	0,3685449	0,0049937	63,39616
	40	68	9,93114	0,013631	-0,0005787	1	0,0136432	-2,43108	17,36559	1,806876	13	0,3665548	0,005001	63,40372
	41	70	7,944915	0,0136992	-0,0005051	1	0,0137085	-2,111673	17,36328	1,80688	13	0,3643805	0,0049951	63,39084
	42	71	6,317385	0,0137766	-0,000437	1	0,0137835	-1,817032	17,36135	1,8069	13	0,3629632	0,0050029	63,38226
	43	74	5,008013	0,0139033	-0,0003864	1	0,0139087	-1,591902	17,36264	1,806891	13	0,3597477	0,0050036	63,40199
	44	76	3,945707	0,0138801	-0,0003399	1	0,0138842	-1,402651	17,35973	1,806894	13	0,3598979	0,0049969	63,37991
	45	79	3,158693	0,0139155	-0,0002661	1	0,0139181	-1,095408	17,3595	1,80689	13	0,3592201	0,0049996	63,38334
	46	82	2,504006	0,013921	-0,0002724	1	0,0139237	-1,120901	17,36041	1,806899	13	0,3478612	0,0048501	63,38391
	47	86	1,998082	0,0139404	-0,0002388	1	0,0139425	-0,981242	17,35993	1,806896	13	0,3641542	0,0050818	63,37615
	48	90	1,584686	0,0139829	-0,0001849	1	0,0139841	-0,7577621	17,35868	1,806894	13	0,3605457	0,0050448	63,37571
	49	95	1,266892	0,0140098	-0,0001856	1	0,014011	-0,7588	17,35656	1,806895	13	0,3575838	0,005012	63,369
	50	102	0,999041	0,0140259	-0,000137	1	0,0140266	-0,559726	17,35121	1,806898	13	0,3567802	0,0050056	63,35958
	51	108	0,7923428	0,0140493	-0,000139	1	0,01405	-0,5668982	17,34719	1,806899	13	0,3562771	0,0050064	63,35284
	52	115	0,6334459	0,0140382	-0,0001378	1	0,0140389	-0,5624186	17,34496	1,806897	13	0,356022	0,0049986	63,34438
	53	124	0,5040323	0,0140424	-0,0001022	1	0,0140428	-0,4169823	17,33859	1,806893	13	0,3562684	0,0050033	63,31889
	54	136	0,400641	0,0140546	-0,0000999	1	0,014055	-0,4072398	17,33284	1,806898	13	0,355822	0,0050013	63,31239
	55	147	0,316723	0,0140831	-7,465706E-005	1	0,0140833	-0,3037316	17,33256	1,806897	13	0,3550728	0,0050007	63,32685
	56	161	0,2520161	0,0141053	-8,140957E-005	1	0,0141055	-0,3306831	17,33238	1,806892	13	0,3543986	0,004999	63,3261
	57	183	0,2003205	0,0140782	-6,005508E-005	1	0,0140783	-0,2444126	17,32531	1,806895	13	0,3550528	0,0049986	63,32118
	58	209	0,1588983	0,0140725	-8,069551E-005	1	0,0140727	-0,3285462	17,31278	1,806896	13	0,3553535	0,0050008	63,28579
	59	241	0,1260081	0,0140806	-4,816781E-005	1	0,0140807	-0,1960007	17,3018	1,806892	13	0,3551114	0,0050002	63,24963
	60	271	0,1001603	0,0141216	-2,372025E-005	1	0,0141217	-0,0962402	17,29148	1,806894	13	0,3541386	0,005001	63,25077
