EXPLAIN
TAG	EISPOT
TITLE	LABEL	Potentiostatic EIS	Test Identifier
DATE	LABEL	5/8/2026	Date
TIME	LABEL	0:26:21	Time
NOTES	NOTES	1	Notes...
	
PSTAT	PSTAT	REF3000-46189	Potentiostat
VDC	POTEN	1,81696E+000	F	Last Measured Potential (V)
FREQINIT	QUANT	1,00000E+005	Initial Freq. (Hz)
FREQFINAL	QUANT	1,00000E-001	Final Freq. (Hz)
PTSPERDEC	QUANT	1,00000E+001	Points/decade
VAC	QUANT	5,00000E+000	AC Voltage (mV rms)
AREA	QUANT	2,50000E+001	Sample Area (cm^2)
SPEED	SELECTOR	1	Optimize for:
DRIFTCOR	SELECTOR	0	Drift Correction
THD	SELECTOR	0	THD
ZGUESS	QUANT	2,00000E-002	Estimated Z (ohms)
EOC	QUANT	0,5354317	Open Circuit (V)
SEQUENCER	TOGGLE	TRUE	Run as Sequence
PSTATMODEL	IQUANT	6	Pstat Model
PSTATSECTION	LABEL	REF30K-46189	Pstat Section
PSTATSERIALNO	LABEL	46189	Pstat Serial Number
CTRLMODE	IQUANT	1	Control Mode
ELECTROMETER	IQUANT	0	RE=0 or CS=1
IESTAB	IQUANT	0	I/E Stability
CASPEED	IQUANT	3	Control Amp Speed
CONVENTION	IQUANT	1	Current Convention
ICHRANGE	IQUANT	2	Ich Range
ICHRANGEMODE	TOGGLE	F	Ich Auto Range
ICHOFFSETENABLE	TOGGLE	T	Ich Offset Enable
ICHOFFSET	QUANT	0	Ich Offset (V)
ICHFILTER	IQUANT	3	Ich Filter
VCHRANGE	IQUANT	2	Vch Range
VCHRANGEMODE	TOGGLE	F	Vch Auto Range
VCHOFFSETENABLE	TOGGLE	T	Vch Offset Enable
VCHOFFSET	QUANT	0	Vch Offset (V)
VCHFILTER	IQUANT	3	Vch Filter
ACHRANGE	IQUANT	2	Ach Range
ACHOFFSETENABLE	TOGGLE	F	Ach Offset Enable
ACHOFFSET	QUANT	0	Ach Offset (V)
ACHFILTER	IQUANT	1	Ach Filter
IERANGELOWERLIMIT	IQUANT	13	I/E Range Lower Limit
IERANGEMODE	TOGGLE	F	I/E AutoRange
IERANGE	IQUANT	13	I/E Range
POSFEEDENABLE	TOGGLE	F	Positive Feedback IR Comp
POSFEEDRESISTANCE	QUANT	0	Positive Feedback Resistance (ohm)
ACHSELECT	IQUANT	4	Ach Select
SENSECABLEID	IQUANT	14	Sense Cable ID
PWRCABLEID	IQUANT	8	Power Cable ID
DCCALDATE	LABEL	10/1/2025	DC Calibration Date
ACCALDATE	LABEL	10/1/2025	AC Calibration Date
THERMOSELECT	IQUANT	1	Thermo Select
FRAMEWORKVERSION	LABEL	7.10.1	Framework Version
INSTRUMENTVERSION	LABEL	4.80	Instrument Version
COMMVERSION	LABEL	5.10	Communications Version
CPUPLDVERSION	LABEL	6.00	CPU PLD Version
CTRLPLDVERSION	LABEL	3.21	CTRL PLD Version
PSTATPLDVERSION	LABEL	0.00	PSTAT PLD Version
BOOSTERDCCALDATE	LABEL	10/1/2025	Booster DC Calibration Date
ZCURVE	TABLE
	Pt	Time	Freq	Zreal	Zimag	Zsig	Zmod	Zphz	Idc	Vdc	IERange	Imod	Vmod	Temp
	#	s	Hz	ohm	ohm	V	ohm	°	A	V	#	A	V	°C
	0	5	100078,1	0,0138707	0,0067926	1	0,0154446	26,09152	17,42158	1,813985	13	0,3250279	0,0049987	62,60308
	1	6	79453,13	0,0136187	0,0055702	1	0,0147138	22,24522	17,41772	1,813982	13	0,4462012	0,0065437	62,60924
	2	8	63140,62	0,0134077	0,0045765	1	0,0141673	18,8465	17,41673	1,81399	13	0,4505588	0,0063657	62,60543
	3	10	50203,12	0,0132236	0,0037594	1	0,0137476	15,87	17,41564	1,813981	13	0,4526013	0,0062083	62,5998
	4	11	39890,62	0,0130734	0,0030828	1	0,0134319	13,26823	17,41223	1,813989	13	0,4621191	0,0061965	62,60193
	5	13	31640,63	0,0129474	0,0025208	1	0,0131905	11,01742	17,4102	1,813964	13	0,4603714	0,0060649	62,5957
	6	15	25171,88	0,0128565	0,0020546	1	0,0130196	9,079856	17,40975	1,813972	13	0,4559917	0,0059316	62,59593
	7	16	20015,62	0,0127686	0,0016803	1	0,0128787	7,49695	17,40846	1,813982	13	0,4508286	0,0058026	62,59521
	8	18	15890,62	0,0127065	0,0013624	1	0,0127793	6,119888	17,41049	1,813989	13	0,4450533	0,0056852	62,59025
	9	19	12609,38	0,0126543	0,00111	1	0,0127029	5,012767	17,40833	1,813959	13	0,4351989	0,0055269	62,59327
	10	21	10078,13	0,012617	0,0008989	1	0,0126489	4,075371	17,40796	1,813977	13	0,42573	0,0053841	62,58173
	11	23	8015,625	0,0125865	0,000724	1	0,0126073	3,292121	17,40609	1,813983	13	0,4194103	0,0052871	62,58946
	12	24	6328,125	0,0125554	0,0005762	1	0,0125686	2,627444	17,40677	1,813981	13	0,4146739	0,0052115	62,58471
	13	26	5015,625	0,0125386	0,0004543	1	0,0125468	2,075264	17,40387	1,813981	13	0,4102586	0,0051472	62,58512
	14	28	3984,375	0,0125239	0,0003536	1	0,0125289	1,617122	17,40161	1,813972	13	0,4068512	0,0050973	62,58478
	15	30	3170,956	0,0125115	0,0002634	1	0,0125143	1,206152	17,40115	1,813972	13	0,4044288	0,0050611	62,58223
	16	31	2527,573	0,0125096	0,0001861	1	0,012511	0,8520896	17,40029	1,813989	13	0,4028886	0,0050405	62,57888
	17	33	1976,103	0,0125032	0,0001113	1	0,0125037	0,5100911	17,40102	1,813976	13	0,4018447	0,0050245	62,58138
	18	35	1577,524	0,0125105	4,859719E-005	1	0,0125106	0,2225655	17,40141	1,813983	13	0,4006968	0,0050129	62,58972
	19	37	1265,625	0,0125177	-9,285834E-006	1	0,0125177	-0,042503	17,40489	1,813982	13	0,4002088	0,0050097	62,57676
	20	38	998,264	0,012534	-6,956309E-005	1	0,0125342	-0,3179863	17,40358	1,813971	13	0,399333	0,0050053	62,59118
	21	40	796,875	0,0125524	-0,0001156	1	0,0125529	-0,5277188	17,40348	1,813979	13	0,398354	0,0050005	62,59219
	22	41	627,7902	0,0125804	-0,0001703	1	0,0125816	-0,7757398	17,40352	1,813982	13	0,3972326	0,0049978	62,58842
	23	43	505,5147	0,0126091	-0,0002162	1	0,0126109	-0,982436	17,40465	1,813986	13	0,3902723	0,0049597	62,58924
	24	44	397,9953	0,0126458	-0,0002636	1	0,0126486	-1,193973	17,40498	1,813967	13	0,3967326	0,0050407	62,58284
	25	46	315,5048	0,0126866	-0,0003115	1	0,0126905	-1,406567	17,40619	1,813969	13	0,3933172	0,0050048	62,58208
	26	48	252,4038	0,0127337	-0,0003575	1	0,0127387	-1,608088	17,40516	1,813979	13	0,3917726	0,004999	62,5975
	27	49	198,6229	0,012788	-0,0004104	1	0,0127946	-1,838034	17,4057	1,813967	13	0,3900248	0,0049952	62,59172
	28	51	158,3615	0,0128517	-0,0004619	1	0,01286	-2,058492	17,40248	1,813969	13	0,388336	0,0049972	62,59196
	29	52	125,558	0,0129252	-0,0005174	1	0,0129355	-2,29234	17,40228	1,813985	13	0,3860407	0,0049956	62,60757
	30	54	100,4464	0,0130043	-0,0005703	1	0,0130168	-2,51105	17,40215	1,813961	13	0,383748	0,0049964	62,58952
	31	55	79,00281	0,0131024	-0,0006268	1	0,0131174	-2,738901	17,40297	1,813956	13	0,3807787	0,0049956	62,57127
	32	57	63,3446	0,0132086	-0,0006761	1	0,0132259	-2,930027	17,40283	1,813984	13	0,3775083	0,0049934	62,57416
	33	59	50,22321	0,0133308	-0,000722	1	0,0133503	-3,100024	17,39931	1,813979	13	0,3736225	0,0049883	62,58239
	34	61	38,42213	0,013487	-0,0007611	1	0,0135085	-3,22989	17,40126	1,813978	13	0,3675453	0,0049652	62,58479
	35	62	31,25	0,0136198	-0,0007751	1	0,0136419	-3,257304	17,40041	1,813973	13	0,3617479	0,004935	62,58018
	36	64	24,93351	0,013759	-0,0007744	1	0,0137807	-3,221522	17,39781	1,81398	13	0,351758	0,0048476	62,57944
	37	66	19,86229	0,0139097	-0,0007681	1	0,0139309	-3,160507	17,39607	1,813957	13	0,3832129	0,0053386	62,5731
	38	67	15,625	0,0140444	-0,0007057	1	0,0140622	-2,876726	17,39696	1,813958	13	0,3558528	0,0050041	62,58233
	39	69	12,40079	0,0142057	-0,0007218	1	0,0142241	-2,908832	17,39276	1,813951	13	0,3513763	0,004998	62,58643
	40	70	9,93114	0,0142611	-0,0005926	1	0,0142734	-2,379351	17,39579	1,81396	13	0,35045	0,0050021	62,58724
	41	72	7,944915	0,0143308	-0,0005448	1	0,0143412	-2,176933	17,39463	1,813963	13	0,3486315	0,0049998	62,58231
	42	74	6,317385	0,0143897	-0,0004761	1	0,0143976	-1,894947	17,39665	1,813958	13	0,3471556	0,0049982	62,59623
	43	76	5,008013	0,0145442	-0,0003827	1	0,0145492	-1,507428	17,3963	1,813961	13	0,3434332	0,0049967	62,58422
	44	78	3,945707	0,0145509	-0,0004164	1	0,0145569	-1,639288	17,39667	1,81396	13	0,3434069	0,0049989	62,58397
	45	81	3,158693	0,0145605	-0,000334	1	0,0145644	-1,314057	17,39602	1,813957	13	0,3436586	0,0050052	62,57515
	46	84	2,504006	0,0146432	-0,0003378	1	0,0146471	-1,321373	17,39217	1,813956	13	0,3301784	0,0048428	62,58513
	47	88	1,998082	0,0146625	-0,0003103	1	0,0146658	-1,212524	17,38795	1,813958	13	0,3467568	0,0050901	62,57846
	48	93	1,584686	0,0147125	-0,0002885	1	0,0147153	-1,123402	17,38539	1,813961	13	0,3420877	0,0050369	62,57726
	49	100	1,266892	0,014745	-0,0002812	1	0,0147476	-1,092497	17,38597	1,813962	13	0,3401347	0,0050181	62,58406
	50	108	0,999041	0,0147848	-0,0002629	1	0,0147872	-1,018879	17,38672	1,813961	13	0,3387494	0,0050103	62,57961
	51	115	0,7923428	0,0147854	-0,0002465	1	0,0147874	-0,955195	17,3864	1,813967	13	0,3376729	0,004994	62,57618
	52	121	0,6334459	0,0148073	-0,0002414	1	0,0148093	-0,9341809	17,38633	1,813965	13	0,3380485	0,0050067	62,59026
	53	131	0,5040323	0,0148597	-0,0002657	1	0,014862	-1,024333	17,38419	1,813959	13	0,3363203	0,0049987	62,58378
	54	140	0,400641	0,0148724	-0,0002351	1	0,0148743	-0,9057842	17,3835	1,813963	13	0,33615	0,0050002	62,59653
	55	154	0,316723	0,0149196	-0,0002235	1	0,0149213	-0,8582235	17,37869	1,813964	13	0,335169	0,0050013	62,57058
	56	172	0,2520161	0,0149548	-0,0002307	1	0,0149566	-0,8839719	17,37081	1,813964	13	0,3343056	0,0050002	62,5493
	57	189	0,2003205	0,0149335	-0,0002124	1	0,014935	-0,8150329	17,36281	1,813969	13	0,3347611	0,0049997	62,52048
	58	211	0,1588983	0,0150331	-0,000197	1	0,0150344	-0,7507805	17,35754	1,813962	13	0,3326853	0,0050017	62,50168
	59	236	0,1260081	0,0150456	-0,0002154	1	0,0150472	-0,8201357	17,34575	1,813961	13	0,3323405	0,0050008	62,49645
	60	266	0,1001603	0,0150656	-0,0001843	1	0,0150667	-0,7009182	17,34006	1,81396	13	0,3319142	0,0050009	62,48349
