EXPLAIN
TAG	EISPOT
TITLE	LABEL	Potentiostatic EIS	Test Identifier
DATE	LABEL	26/6/2026	Date
TIME	LABEL	10:33:08	Time
NOTES	NOTES	1	Notes...
	
PSTAT	PSTAT	REF3000-46189	Potentiostat
VDC	POTEN	1,66243E+000	F	Last Measured Potential (V)
FREQINIT	QUANT	1,00000E+005	Initial Freq. (Hz)
FREQFINAL	QUANT	1,00000E-001	Final Freq. (Hz)
PTSPERDEC	QUANT	1,00000E+001	Points/decade
VAC	QUANT	5,00000E+000	AC Voltage (mV rms)
AREA	QUANT	2,50000E+001	Sample Area (cm^2)
SPEED	SELECTOR	1	Optimize for:
DRIFTCOR	SELECTOR	0	Drift Correction
THD	SELECTOR	0	THD
ZGUESS	QUANT	2,00000E-002	Estimated Z (ohms)
EOC	QUANT	0,6522886	Open Circuit (V)
SEQUENCER	TOGGLE	TRUE	Run as Sequence
PSTATMODEL	IQUANT	6	Pstat Model
PSTATSECTION	LABEL	REF30K-46189	Pstat Section
PSTATSERIALNO	LABEL	46189	Pstat Serial Number
CTRLMODE	IQUANT	1	Control Mode
ELECTROMETER	IQUANT	0	RE=0 or CS=1
IESTAB	IQUANT	0	I/E Stability
CASPEED	IQUANT	3	Control Amp Speed
CONVENTION	IQUANT	1	Current Convention
ICHRANGE	IQUANT	2	Ich Range
ICHRANGEMODE	TOGGLE	F	Ich Auto Range
ICHOFFSETENABLE	TOGGLE	T	Ich Offset Enable
ICHOFFSET	QUANT	0	Ich Offset (V)
ICHFILTER	IQUANT	3	Ich Filter
VCHRANGE	IQUANT	2	Vch Range
VCHRANGEMODE	TOGGLE	F	Vch Auto Range
VCHOFFSETENABLE	TOGGLE	T	Vch Offset Enable
VCHOFFSET	QUANT	0	Vch Offset (V)
VCHFILTER	IQUANT	3	Vch Filter
ACHRANGE	IQUANT	2	Ach Range
ACHOFFSETENABLE	TOGGLE	F	Ach Offset Enable
ACHOFFSET	QUANT	0	Ach Offset (V)
ACHFILTER	IQUANT	1	Ach Filter
IERANGELOWERLIMIT	IQUANT	13	I/E Range Lower Limit
IERANGEMODE	TOGGLE	F	I/E AutoRange
IERANGE	IQUANT	13	I/E Range
POSFEEDENABLE	TOGGLE	F	Positive Feedback IR Comp
POSFEEDRESISTANCE	QUANT	0	Positive Feedback Resistance (ohm)
ACHSELECT	IQUANT	4	Ach Select
SENSECABLEID	IQUANT	14	Sense Cable ID
PWRCABLEID	IQUANT	8	Power Cable ID
DCCALDATE	LABEL	10/1/2025	DC Calibration Date
ACCALDATE	LABEL	10/1/2025	AC Calibration Date
THERMOSELECT	IQUANT	1	Thermo Select
FRAMEWORKVERSION	LABEL	7.10.1	Framework Version
INSTRUMENTVERSION	LABEL	4.80	Instrument Version
COMMVERSION	LABEL	5.10	Communications Version
CPUPLDVERSION	LABEL	6.00	CPU PLD Version
CTRLPLDVERSION	LABEL	3.21	CTRL PLD Version
PSTATPLDVERSION	LABEL	0.00	PSTAT PLD Version
BOOSTERDCCALDATE	LABEL	10/1/2025	Booster DC Calibration Date
ZCURVE	TABLE
	Pt	Time	Freq	Zreal	Zimag	Zsig	Zmod	Zphz	Idc	Vdc	IERange	Imod	Vmod	Temp
	#	s	Hz	ohm	ohm	V	ohm	°	A	V	#	A	V	°C
	0	4	100078,1	0,0136175	0,0067689	1	0,0152071	26,43068	8,591153	1,6601	13	0,3301789	0,0049998	64,30849
	1	6	79453,13	0,0133752	0,0055608	1	0,0144851	22,57524	8,588213	1,660098	13	0,4475866	0,006462	64,31242
	2	7	63140,62	0,013163	0,0045664	1	0,0139326	19,13246	8,588616	1,660114	13	0,4545006	0,006315	64,31111
	3	9	50203,12	0,0129843	0,0037515	1	0,0135154	16,11517	8,58306	1,660111	13	0,4590208	0,00619	64,30071
	4	11	39890,62	0,0128362	0,0030747	1	0,0131993	13,47047	8,582308	1,660112	13	0,471219	0,0062091	64,29977
	5	13	31640,63	0,0127143	0,0025108	1	0,0129599	11,1708	8,584351	1,660128	13	0,4718895	0,0061079	64,29578
	6	14	25171,88	0,0126186	0,0020549	1	0,0127848	9,249067	8,578616	1,660114	13	0,4699231	0,0060026	64,29096
	7	16	20015,62	0,0125377	0,0016739	1	0,012649	7,604635	8,579488	1,660105	13	0,4668569	0,0059017	64,28047
	8	18	15890,62	0,0124747	0,001356	1	0,0125481	6,203592	8,576982	1,660113	13	0,4612802	0,0057859	64,28387
	9	19	12609,38	0,0124223	0,0010985	1	0,0124708	5,053714	8,575733	1,660101	13	0,4545793	0,0056675	64,28022
	10	21	10078,13	0,0123875	0,0008874	1	0,0124192	4,097641	8,574827	1,660109	13	0,4426923	0,005497	64,2746
	11	23	8015,625	0,0123572	0,0007124	1	0,0123777	3,299593	8,577452	1,660098	13	0,4350525	0,0053844	64,27719
	12	24	6328,125	0,0123299	0,0005622	1	0,0123427	2,610812	8,577718	1,660106	13	0,4286272	0,0052901	64,2779
	13	26	5015,625	0,0123119	0,0004425	1	0,0123198	2,058605	8,577534	1,660118	13	0,422433	0,0052041	64,27872
	14	28	3984,375	0,0122955	0,0003358	1	0,0123001	1,564455	8,579278	1,660112	13	0,417773	0,0051385	64,27807
	15	29	3170,956	0,0122862	0,0002463	1	0,0122887	1,148274	8,577185	1,660112	13	0,4140531	0,0050881	64,28027
	16	31	2527,573	0,0122811	0,0001609	1	0,0122821	0,7504564	8,577314	1,660104	13	0,411503	0,0050541	64,27256
	17	32	1976,103	0,0122846	7,879869E-005	1	0,0122848	0,3675159	8,576743	1,66011	13	0,410143	0,0050385	64,27077
	18	34	1577,524	0,0122915	1,372217E-005	1	0,0122915	0,0639648	8,578793	1,660102	13	0,4086045	0,0050223	64,28738
	19	36	1265,625	0,0123052	-4,402734E-005	1	0,0123053	-0,2050007	8,579133	1,660112	13	0,4073792	0,0050129	64,27744
	20	37	998,264	0,0123165	-0,000108	1	0,012317	-0,5022699	8,577902	1,660114	13	0,4063228	0,0050047	64,28079
	21	39	796,875	0,0123507	-0,0001694	1	0,0123519	-0,7855906	8,579687	1,660116	13	0,4054346	0,0050079	64,28043
	22	41	627,7902	0,0123784	-0,0002257	1	0,0123805	-1,04465	8,578916	1,660109	13	0,4037262	0,0049983	64,28355
	23	42	505,5147	0,0124097	-0,0002835	1	0,012413	-1,308869	8,580105	1,660112	13	0,3963769	0,0049583	64,29327
	24	44	397,9953	0,0124528	-0,0003431	1	0,0124575	-1,578402	8,579795	1,660109	13	0,4027173	0,0050395	64,29528
	25	45	315,5048	0,0125022	-0,0004068	1	0,0125088	-1,86363	8,58078	1,660103	13	0,3990967	0,0050057	64,28669
	26	47	252,4038	0,0125561	-0,0004691	1	0,0125649	-2,139628	8,578853	1,66012	13	0,3969996	0,0049966	64,29883
	27	48	198,6229	0,0126233	-0,0005432	1	0,012635	-2,4638	8,581029	1,660106	13	0,3951727	0,004998	64,2883
	28	50	158,3615	0,0126963	-0,0006163	1	0,0127112	-2,778929	8,579183	1,660118	13	0,3927596	0,0049956	64,30525
	29	52	125,558	0,0127831	-0,0006999	1	0,0128022	-3,133982	8,576671	1,660091	13	0,3900479	0,0049954	64,29881
	30	53	100,4464	0,0128799	-0,0007832	1	0,0129037	-3,479757	8,579744	1,660095	13	0,3870436	0,0049955	64,28873
	31	55	79,00281	0,012998	-0,0008797	1	0,0130277	-3,871681	8,57608	1,660108	13	0,3832377	0,0049935	64,28596
	32	56	63,3446	0,0131255	-0,0009731	1	0,0131615	-4,240193	8,576246	1,660107	13	0,3792771	0,0049924	64,28944
	33	58	50,22321	0,0132751	-0,0010723	1	0,0133183	-4,617912	8,574957	1,660097	13	0,374255	0,0049848	64,29469
	34	60	38,42213	0,0134815	-0,001189	1	0,0135339	-5,039972	8,569141	1,660079	13	0,3661297	0,0049553	64,2944
	35	61	31,25	0,0136544	-0,0012787	1	0,0137142	-5,350033	8,571893	1,660096	13	0,3592485	0,0049269	64,28341
	36	63	24,93351	0,0138787	-0,0013631	1	0,0139455	-5,609381	8,570994	1,660108	13	0,3455359	0,0048187	64,27981
	37	65	19,86229	0,0141527	-0,0014498	1	0,0142267	-5,849005	8,570942	1,660107	13	0,379843	0,005404	64,2728
	38	66	15,625	0,014383	-0,0014969	1	0,0144607	-5,94166	8,564348	1,660096	13	0,3457537	0,0049999	64,26852
	39	68	12,40079	0,0147033	-0,0014914	1	0,0147787	-5,792008	8,571283	1,6601	13	0,338672	0,0050052	64,26491
	40	69	9,93114	0,0149852	-0,0015268	1	0,0150628	-5,817795	8,568034	1,660102	13	0,3314504	0,0049926	64,26971
	41	71	7,944915	0,0152646	-0,0014367	1	0,0153321	-5,376988	8,569221	1,660098	13	0,325947	0,0049975	64,26682
	42	73	6,317385	0,015514	-0,0013328	1	0,0155711	-4,910208	8,56735	1,660102	13	0,3210411	0,004999	64,27496
	43	75	5,008013	0,0158017	-0,0012894	1	0,0158543	-4,664951	8,567794	1,660106	13	0,3154112	0,0050006	64,26975
	44	77	3,945707	0,0159421	-0,0011004	1	0,01598	-3,94861	8,56943	1,660098	13	0,3128107	0,0049987	64,27032
	45	80	3,158693	0,0160776	-0,0009574	1	0,0161061	-3,407792	8,571041	1,660098	13	0,310632	0,0050031	64,26993
	46	83	2,504006	0,0161703	-0,0008089	1	0,0161905	-2,863812	8,57165	1,660102	13	0,2991307	0,0048497	64,27276
	47	86	1,998082	0,0162714	-0,0006764	1	0,0162854	-2,380396	8,570105	1,660097	13	0,3122715	0,0050901	64,26978
	48	90	1,584686	0,0163449	-0,0005592	1	0,0163544	-1,959314	8,568804	1,6601	13	0,3077523	0,005036	64,27434
	49	97	1,266892	0,0163944	-0,0005048	1	0,0164022	-1,763469	8,566841	1,660104	13	0,3053459	0,0050102	64,27242
	50	102	0,999041	0,0164179	-0,0004395	1	0,0164238	-1,533263	8,567561	1,660096	13	0,3047219	0,0050059	64,26212
	51	108	0,7923428	0,0164658	-0,0003709	1	0,01647	-1,290516	8,562211	1,660102	13	0,3038791	0,0050056	64,25039
	52	116	0,6334459	0,0165119	-0,0003094	1	0,0165148	-1,073402	8,556473	1,660101	13	0,3030734	0,0050057	64,25107
	53	125	0,5040323	0,0165334	-0,0002829	1	0,0165358	-0,98039	8,557265	1,660098	13	0,3023327	0,0049996	64,25173
	54	135	0,400641	0,0165589	-0,0002248	1	0,0165604	-0,7776845	8,559534	1,660094	13	0,3018449	0,0049989	64,25534
	55	146	0,316723	0,016565	-0,0002195	1	0,0165665	-0,7590869	8,556566	1,6601	13	0,3018249	0,0050003	64,2514
	56	161	0,2520161	0,0165446	-0,0002077	1	0,0165459	-0,7194082	8,552362	1,660098	13	0,3022544	0,0050012	64,23265
	57	178	0,2003205	0,0165951	-0,0001932	1	0,0165962	-0,6670812	8,532726	1,660101	13	0,3013255	0,0050009	64,12624
	58	205	0,1588983	0,0165732	-0,0001675	1	0,016574	-0,5789786	8,539962	1,6601	13	0,3018273	0,0050025	64,11375
	59	230	0,1260081	0,0166113	-0,0001684	1	0,0166122	-0,5807372	8,527724	1,660102	13	0,3009583	0,0049996	64,06154
	60	268	0,1001603	0,016643	-0,000155	1	0,0166437	-0,5336123	8,519369	1,660101	13	0,3003581	0,0049991	64,02064
