EXPLAIN
TAG	CORPOT
TITLE	LABEL	Open Circuit Potential	Test Identifier
DATE	LABEL	26/8/2026	Date
TIME	LABEL	13:38:48	Time
NOTES	NOTES	1	Notes...
	Primer OCP de la caracterizacio
PSTAT	PSTAT	REF3000-46189	Potentiostat
TIMEOUT	QUANT	6,00000E+001	Total Time (s)
SAMPLETIME	QUANT	1,00000E-001	Sample Period (s)
STABILITY	QUANT	0,00000E+000	Stability (mV/s)
AREA	QUANT	2,50000E+001	Sample Area (cm^2)
SEQUENCER	TOGGLE	TRUE	Run as Sequence
PSTATMODEL	IQUANT	6	Pstat Model
PSTATSECTION	LABEL	REF30K-46189	Pstat Section
PSTATSERIALNO	LABEL	46189	Pstat Serial Number
CTRLMODE	IQUANT	1	Control Mode
ELECTROMETER	IQUANT	0	RE=0 or CS=1
IESTAB	IQUANT	2	I/E Stability
CASPEED	IQUANT	4	Control Amp Speed
CONVENTION	IQUANT	1	Current Convention
ICHRANGE	IQUANT	2	Ich Range
ICHRANGEMODE	TOGGLE	T	Ich Auto Range
ICHOFFSETENABLE	TOGGLE	F	Ich Offset Enable
ICHOFFSET	QUANT	0	Ich Offset (V)
ICHFILTER	IQUANT	2	Ich Filter
VCHRANGE	IQUANT	3	Vch Range
VCHRANGEMODE	TOGGLE	T	Vch Auto Range
VCHOFFSETENABLE	TOGGLE	F	Vch Offset Enable
VCHOFFSET	QUANT	0	Vch Offset (V)
VCHFILTER	IQUANT	2	Vch Filter
ACHRANGE	IQUANT	2	Ach Range
ACHOFFSETENABLE	TOGGLE	F	Ach Offset Enable
ACHOFFSET	QUANT	0	Ach Offset (V)
ACHFILTER	IQUANT	1	Ach Filter
IERANGELOWERLIMIT	IQUANT	13	I/E Range Lower Limit
IERANGEMODE	TOGGLE	F	I/E AutoRange
IERANGE	IQUANT	13	I/E Range
POSFEEDENABLE	TOGGLE	F	Positive Feedback IR Comp
POSFEEDRESISTANCE	QUANT	0	Positive Feedback Resistance (ohm)
ACHSELECT	IQUANT	4	Ach Select
SENSECABLEID	IQUANT	14	Sense Cable ID
PWRCABLEID	IQUANT	8	Power Cable ID
DCCALDATE	LABEL	10/1/2025	DC Calibration Date
ACCALDATE	LABEL	10/1/2025	AC Calibration Date
THERMOSELECT	IQUANT	1	Thermo Select
FRAMEWORKVERSION	LABEL	7.10.1	Framework Version
INSTRUMENTVERSION	LABEL	4.80	Instrument Version
COMMVERSION	LABEL	5.10	Communications Version
CPUPLDVERSION	LABEL	6.00	CPU PLD Version
CTRLPLDVERSION	LABEL	3.21	CTRL PLD Version
PSTATPLDVERSION	LABEL	0.00	PSTAT PLD Version
BOOSTERDCCALDATE	LABEL	10/1/2025	Booster DC Calibration Date
CURVE	TABLE	545
	Pt	T	Vf	Vm	Ach	Over	Temp
	#	s	V vs. Ref.	V	V	bits	deg C
	0	0,11	4,06839E-001	4,06839E-001	1,71116E-005	...........	65,64
	1	0,22	4,06847E-001	4,07267E-001	3,29116E-005	...........	65,62
	2	0,33	4,06896E-001	4,07603E-001	3,29116E-005	...........	65,62
	3	0,44	4,07036E-001	4,08259E-001	3,27116E-005	...........	65,62
	4	0,55	4,07297E-001	4,08391E-001	3,69116E-005	...........	65,62
	5	0,66	4,07649E-001	4,08654E-001	2,37116E-005	...........	65,61
	6	0,77	4,08019E-001	4,08932E-001	3,47116E-005	...........	65,63
	7	0,88	4,08351E-001	4,09128E-001	3,73116E-005	...........	65,63
	8	0,99	4,08640E-001	4,09596E-001	3,75116E-005	...........	65,62
	9	1,1	4,08917E-001	4,09889E-001	2,89116E-005	...........	65,63
	10	1,21	4,09206E-001	4,09998E-001	2,27116E-005	...........	65,64
	11	1,32	4,09499E-001	4,10158E-001	3,09116E-005	...........	65,62
	12	1,43	4,09761E-001	4,10330E-001	2,91116E-005	...........	65,63
	13	1,54	4,09976E-001	4,10477E-001	2,67116E-005	...........	65,62
	14	1,65	4,10153E-001	4,10586E-001	2,59116E-005	...........	65,62
	15	1,76	4,10308E-001	4,10697E-001	2,79116E-005	...........	65,62
	16	1,87	4,10449E-001	4,10919E-001	2,81116E-005	...........	65,63
	17	1,98	4,10588E-001	4,11150E-001	2,61116E-005	...........	65,62
	18	2,09	4,10742E-001	4,11344E-001	4,19116E-005	...........	65,63
	19	2,2	4,10920E-001	4,11456E-001	2,55116E-005	...........	65,63
	20	2,31	4,11105E-001	4,11500E-001	2,03116E-005	...........	65,62
	21	2,42	4,11271E-001	4,11536E-001	2,09116E-005	...........	65,62
	22	2,53	4,11397E-001	4,11574E-001	3,01116E-005	...........	65,63
	23	2,64	4,11481E-001	4,11643E-001	2,21116E-005	...........	65,64
	24	2,75	4,11539E-001	4,11693E-001	2,15116E-005	...........	65,63
	25	2,86	4,11588E-001	4,11766E-001	2,33116E-005	...........	65,61
	26	2,97	4,11639E-001	4,11817E-001	2,11116E-005	...........	65,63
	27	3,08	4,11695E-001	4,11888E-001	2,85116E-005	...........	65,64
	28	3,19	4,11755E-001	4,11939E-001	1,99116E-005	...........	65,63
	29	3,3	4,11816E-001	4,11985E-001	3,15116E-005	...........	65,62
	30	3,41	4,11875E-001	4,12029E-001	3,13116E-005	...........	65,63
	31	3,52	4,11929E-001	4,12056E-001	2,23116E-005	...........	65,62
	32	3,63	4,11977E-001	4,12099E-001	1,47116E-005	...........	65,64
	33	3,74	4,12019E-001	4,12110E-001	2,57116E-005	...........	65,62
	34	3,85	4,12055E-001	4,12147E-001	3,25116E-005	...........	65,64
	35	3,96	4,12086E-001	4,12149E-001	3,57116E-005	...........	65,64
	36	4,07	4,12113E-001	4,12174E-001	3,11116E-005	...........	65,64
	37	4,18	4,12134E-001	4,12169E-001	2,91116E-005	...........	65,63
	38	4,29	4,12151E-001	4,12184E-001	2,97116E-005	...........	65,64
	39	4,4	4,12164E-001	4,12194E-001	2,43116E-005	...........	65,63
	40	4,51	4,12174E-001	4,12192E-001	2,61116E-005	...........	65,64
	41	4,62	4,12182E-001	4,12193E-001	3,15116E-005	...........	65,63
	42	4,73	4,12188E-001	4,12187E-001	2,01116E-005	...........	65,64
	43	4,84	4,12191E-001	4,12196E-001	2,55116E-005	...........	65,62
	44	4,95	4,12192E-001	4,12185E-001	1,79116E-005	...........	65,63
	45	5,06	4,12191E-001	4,12194E-001	2,17116E-005	...........	65,63
	46	5,17	4,12191E-001	4,12175E-001	2,19116E-005	...........	65,63
	47	5,28	4,12189E-001	4,12187E-001	2,91116E-005	...........	65,62
	48	5,39	4,12186E-001	4,12160E-001	2,61116E-005	...........	65,63
	49	5,5	4,12182E-001	4,12164E-001	2,67116E-005	...........	65,63
	50	5,61	4,12176E-001	4,12147E-001	1,85116E-005	...........	65,63
	51	5,72	4,12168E-001	4,12139E-001	2,57116E-005	...........	65,62
	52	5,83	4,12159E-001	4,12123E-001	1,97116E-005	...........	65,64
	53	5,94	4,12149E-001	4,12103E-001	3,05116E-005	...........	65,63
	54	6,05	4,12137E-001	4,12091E-001	2,27116E-005	...........	65,63
	55	6,16	4,12122E-001	4,12053E-001	2,25116E-005	...........	65,62
	56	6,27	4,12105E-001	4,12051E-001	3,09116E-005	...........	65,63
	57	6,38	4,12085E-001	4,12007E-001	2,57116E-005	...........	65,62
	58	6,49	4,12064E-001	4,11992E-001	2,43116E-005	...........	65,63
	59	6,6	4,12040E-001	4,11939E-001	1,97116E-005	...........	65,62
	60	6,71	4,12014E-001	4,11926E-001	1,35116E-005	...........	65,64
	61	6,82	4,11984E-001	4,11867E-001	1,45116E-005	...........	65,62
	62	6,93	4,11951E-001	4,11841E-001	1,95116E-005	...........	65,64
	63	7,04	4,11916E-001	4,11798E-001	1,73116E-005	...........	65,63
	64	7,15	4,11879E-001	4,11757E-001	2,45116E-005	...........	65,64
	65	7,26	4,11840E-001	4,11730E-001	1,65116E-005	...........	65,62
	66	7,37	4,11802E-001	4,11673E-001	1,81116E-005	...........	65,62
	67	7,48	4,11764E-001	4,11657E-001	2,31116E-005	...........	65,63
	68	7,59	4,11725E-001	4,11597E-001	1,49116E-005	...........	65,63
	69	7,7	4,11687E-001	4,11588E-001	2,09116E-005	...........	65,63
	70	7,81	4,11650E-001	4,11561E-001	9,91157E-006	...........	65,62
	71	7,92	4,11617E-001	4,11537E-001	2,17116E-005	...........	65,61
	72	8,03	4,11588E-001	4,11519E-001	1,65116E-005	...........	65,63
	73	8,14	4,11563E-001	4,11500E-001	2,61116E-005	...........	65,62
	74	8,25	4,11541E-001	4,11481E-001	1,61116E-005	...........	65,63
	75	8,36	4,11520E-001	4,11440E-001	1,77116E-005	...........	65,62
	76	8,47	4,11498E-001	4,11395E-001	2,75116E-005	...........	65,63
	77	8,58	4,11471E-001	4,11334E-001	1,27116E-005	...........	65,63
	78	8,69	4,11435E-001	4,11266E-001	2,71116E-005	...........	65,63
	79	8,8	4,11388E-001	4,11157E-001	1,99116E-005	...........	65,62
	80	8,91	4,11327E-001	4,11041E-001	2,39116E-005	...........	65,64
	81	9,02	4,11250E-001	4,10935E-001	1,59116E-005	...........	65,63
	82	9,13	4,11157E-001	4,10831E-001	3,71116E-005	...........	65,64
	83	9,24	4,11054E-001	4,10740E-001	2,73116E-005	...........	65,62
	84	9,35	4,10949E-001	4,10675E-001	3,87116E-005	...........	65,63
	85	9,46	4,10850E-001	4,10613E-001	3,11116E-005	...........	65,62
	86	9,57	4,10763E-001	4,10580E-001	2,67116E-005	...........	65,63
	87	9,68	4,10690E-001	4,10542E-001	3,03116E-005	...........	65,62
	88	9,79	4,10631E-001	4,10500E-001	2,37116E-005	...........	65,64
	89	9,9	4,10584E-001	4,10458E-001	3,05116E-005	...........	65,63
	90	10,01	4,10541E-001	4,10392E-001	2,97116E-005	...........	65,64
	91	10,12	4,10498E-001	4,10336E-001	2,95116E-005	...........	65,64
	92	10,23	4,10450E-001	4,10244E-001	3,05116E-005	...........	65,64
	93	10,34	4,10394E-001	4,10197E-001	2,61116E-005	...........	65,63
	94	10,45	4,10330E-001	4,10129E-001	2,35116E-005	...........	65,64
	95	10,56	4,10265E-001	4,10090E-001	2,93116E-005	...........	65,62
	96	10,67	4,10202E-001	4,10020E-001	2,63116E-005	...........	65,63
	97	10,78	4,10142E-001	4,09981E-001	3,09116E-005	...........	65,62
	98	10,89	4,10087E-001	4,09951E-001	1,79116E-005	...........	65,64
	99	11	4,10036E-001	4,09920E-001	2,99116E-005	...........	65,63
	100	11,11	4,09992E-001	4,09890E-001	2,87116E-005	...........	65,63
	101	11,22	4,09954E-001	4,09806E-001	2,37116E-005	...........	65,61
	102	11,33	4,09915E-001	4,09732E-001	3,11116E-005	...........	65,63
	103	11,44	4,09866E-001	4,09561E-001	2,31116E-005	...........	65,62
	104	11,55	4,09796E-001	4,09456E-001	2,69116E-005	...........	65,62
	105	11,66	4,09701E-001	4,09295E-001	3,87116E-005	...........	65,62
	106	11,77	4,09584E-001	4,09167E-001	3,09116E-005	...........	65,63
	107	11,88	4,09454E-001	4,09075E-001	3,87116E-005	...........	65,63
	108	11,99	4,09323E-001	4,08999E-001	3,41116E-005	...........	65,64
	109	12,1	4,09203E-001	4,08966E-001	2,05116E-005	...........	65,63
	110	12,21	4,09103E-001	4,08921E-001	1,87116E-005	...........	65,63
	111	12,32	4,09027E-001	4,08876E-001	2,91116E-005	...........	65,62
	112	12,43	4,08968E-001	4,08790E-001	3,33116E-005	...........	65,63
	113	12,54	4,08916E-001	4,08714E-001	3,23116E-005	...........	65,62
	114	12,65	4,08859E-001	4,08641E-001	1,53116E-005	...........	65,64
	115	12,76	4,08794E-001	4,08569E-001	3,93116E-005	...........	65,61
	116	12,87	4,08723E-001	4,08511E-001	4,13116E-005	...........	65,62
	117	12,98	4,08651E-001	4,08442E-001	2,57116E-005	...........	65,62
	118	13,09	4,08581E-001	4,08386E-001	1,45116E-005	...........	65,63
	119	13,2	4,08515E-001	4,08354E-001	1,47116E-005	...........	65,63
	120	13,31	4,08455E-001	4,08333E-001	1,49116E-005	...........	65,64
	121	13,42	4,08405E-001	4,08305E-001	3,35116E-005	...........	65,62
	122	13,53	4,08365E-001	4,08257E-001	1,81116E-005	...........	65,64
	123	13,64	4,08330E-001	4,08190E-001	2,53116E-005	...........	65,62
	124	13,75	4,08292E-001	4,08065E-001	3,15116E-005	...........	65,62
	125	13,86	4,08239E-001	4,07907E-001	2,37116E-005	...........	65,61
	126	13,97	4,08159E-001	4,07755E-001	3,15116E-005	...........	65,63
	127	14,08	4,08050E-001	4,07587E-001	2,91116E-005	...........	65,62
	128	14,19	4,07916E-001	4,07476E-001	3,83116E-005	...........	65,64
	129	14,3	4,07771E-001	4,07404E-001	3,49116E-005	...........	65,62
	130	14,41	4,07633E-001	4,07365E-001	3,59116E-005	...........	65,64
	131	14,52	4,07518E-001	4,07321E-001	2,73116E-005	...........	65,63
	132	14,63	4,07432E-001	4,07270E-001	3,13116E-005	...........	65,64
	133	14,74	4,07369E-001	4,07195E-001	1,09116E-005	...........	65,62
	134	14,85	4,07315E-001	4,07099E-001	2,79116E-005	...........	65,63
	135	14,96	4,07257E-001	4,07037E-001	2,81116E-005	...........	65,62
	136	15,07	4,07190E-001	4,06944E-001	2,15116E-005	...........	65,63
	137	15,18	4,07115E-001	4,06890E-001	2,95116E-005	...........	65,62
	138	15,29	4,07038E-001	4,06817E-001	2,59116E-005	...........	65,63
	139	15,4	4,06964E-001	4,06765E-001	2,37116E-005	...........	65,62
	140	15,51	4,06895E-001	4,06739E-001	2,83116E-005	...........	65,63
	141	15,62	4,06834E-001	4,06713E-001	2,71116E-005	...........	65,61
	142	15,73	4,06784E-001	4,06695E-001	2,37116E-005	...........	65,63
	143	15,84	4,06745E-001	4,06620E-001	2,19116E-005	...........	65,63
	144	15,95	4,06711E-001	4,06544E-001	2,01116E-005	...........	65,63
	145	16,06	4,06667E-001	4,06369E-001	3,77116E-005	...........	65,63
	146	16,17	4,06602E-001	4,06216E-001	4,39116E-005	...........	65,63
	147	16,28	4,06504E-001	4,06055E-001	3,65116E-005	...........	65,64
	148	16,39	4,06377E-001	4,05933E-001	3,07116E-005	...........	65,64
	149	16,5	4,06234E-001	4,05848E-001	4,19116E-005	...........	65,62
	150	16,61	4,06094E-001	4,05785E-001	3,99116E-005	...........	65,63
	151	16,72	4,05972E-001	4,05734E-001	2,63116E-005	...........	65,64
	152	16,83	4,05874E-001	4,05665E-001	3,53116E-005	...........	65,64
	153	16,94	4,05796E-001	4,05595E-001	3,83116E-005	...........	65,62
	154	17,05	4,05730E-001	4,05515E-001	2,15116E-005	...........	65,64
	155	17,16	4,05664E-001	4,05424E-001	1,79116E-005	...........	65,63
	156	17,27	4,05593E-001	4,05351E-001	2,07116E-005	...........	65,63
	157	17,38	4,05517E-001	4,05279E-001	2,97116E-005	...........	65,63
	158	17,49	4,05438E-001	4,05204E-001	2,47116E-005	...........	65,64
	159	17,6	4,05361E-001	4,05159E-001	2,65116E-005	...........	65,62
	160	17,71	4,05288E-001	4,05095E-001	3,29116E-005	...........	65,63
	161	17,82	4,05221E-001	4,05021E-001	4,13116E-005	...........	65,61
	162	17,93	4,05156E-001	4,04885E-001	3,53116E-005	...........	65,63
	163	18,04	4,05085E-001	4,04785E-001	3,43116E-005	...........	65,62
	164	18,15	4,04999E-001	4,04670E-001	3,11116E-005	...........	65,64
	165	18,26	4,04899E-001	4,04533E-001	3,03116E-005	...........	65,61
	166	18,37	4,04789E-001	4,04412E-001	2,83116E-005	...........	65,63
	167	18,48	4,04670E-001	4,04278E-001	4,35116E-005	...........	65,63
	168	18,59	4,04548E-001	4,04225E-001	3,09116E-005	...........	65,64
	169	18,7	4,04429E-001	4,04171E-001	4,05116E-005	...........	65,61
	170	18,81	4,04326E-001	4,04136E-001	3,51116E-005	...........	65,64
	171	18,92	4,04244E-001	4,04066E-001	3,63116E-005	...........	65,63
	172	19,03	4,04180E-001	4,03992E-001	3,55116E-005	...........	65,63
	173	19,14	4,04123E-001	4,03923E-001	2,91116E-005	...........	65,63
	174	19,25	4,04062E-001	4,03824E-001	4,11116E-005	...........	65,63
	175	19,36	4,03994E-001	4,03765E-001	3,41116E-005	...........	65,62
	176	19,47	4,03920E-001	4,03662E-001	2,43116E-005	...........	65,63
	177	19,58	4,03841E-001	4,03614E-001	3,35116E-005	...........	65,63
	178	19,69	4,03763E-001	4,03560E-001	3,33116E-005	...........	65,64
	179	19,8	4,03690E-001	4,03535E-001	3,19116E-005	...........	65,63
	180	19,91	4,03627E-001	4,03518E-001	1,85116E-005	...........	65,63
	181	20,02	4,03579E-001	4,03491E-001	2,93116E-005	...........	65,62
	182	20,13	4,03543E-001	4,03441E-001	2,23116E-005	...........	65,64
	183	20,24	4,03511E-001	4,03315E-001	3,11116E-005	...........	65,61
	184	20,35	4,03468E-001	4,03160E-001	3,49116E-005	...........	65,64
	185	20,46	4,03398E-001	4,02922E-001	3,39116E-005	...........	65,63
	186	20,57	4,03288E-001	4,02768E-001	4,21116E-005	...........	65,64
	187	20,68	4,03140E-001	4,02649E-001	3,47116E-005	...........	65,63
	188	20,79	4,02975E-001	4,02584E-001	4,55116E-005	...........	65,64
	189	20,9	4,02820E-001	4,02524E-001	4,55116E-005	...........	65,63
	190	21,01	4,02695E-001	4,02449E-001	2,65116E-005	...........	65,64
	191	21,12	4,02599E-001	4,02368E-001	2,69116E-005	...........	65,63
	192	21,23	4,02520E-001	4,02276E-001	3,27116E-005	...........	65,65
	193	21,34	4,02445E-001	4,02192E-001	2,81116E-005	...........	65,63
	194	21,45	4,02367E-001	4,02123E-001	1,57116E-005	...........	65,64
	195	21,56	4,02286E-001	4,02038E-001	3,85116E-005	...........	65,61
	196	21,67	4,02206E-001	4,01992E-001	2,77116E-005	...........	65,64
	197	21,78	4,02129E-001	4,01948E-001	2,31116E-005	...........	65,63
	198	21,89	4,02061E-001	4,01926E-001	2,71116E-005	...........	65,63
	199	22	4,02005E-001	4,01898E-001	2,83116E-005	...........	65,63
	200	22,11	4,01961E-001	4,01842E-001	3,33116E-005	...........	65,63
	201	22,22	4,01923E-001	4,01749E-001	3,03116E-005	...........	65,62
	202	22,33	4,01879E-001	4,01581E-001	2,25116E-005	...........	65,64
	203	22,44	4,01812E-001	4,01377E-001	3,31116E-005	...........	65,63
	204	22,55	4,01709E-001	4,01176E-001	2,33116E-005	...........	65,64
	205	22,66	4,01566E-001	4,01054E-001	2,67116E-005	...........	65,62
	206	22,77	4,01401E-001	4,00991E-001	3,17116E-005	...........	65,63
	207	22,88	4,01241E-001	4,00950E-001	3,17116E-005	...........	65,62
	208	22,99	4,01111E-001	4,00906E-001	2,63116E-005	...........	65,64
	209	23,1	4,01018E-001	4,00839E-001	2,39116E-005	...........	65,62
	210	23,21	4,00951E-001	4,00762E-001	3,21116E-005	...........	65,63
	211	23,32	4,00893E-001	4,00667E-001	2,49116E-005	...........	65,60
	212	23,43	4,00831E-001	4,00612E-001	2,17116E-005	...........	65,63
	213	23,54	4,00761E-001	4,00526E-001	2,81116E-005	...........	65,62
	214	23,65	4,00687E-001	4,00463E-001	3,25116E-005	...........	65,63
	215	23,76	4,00612E-001	4,00396E-001	3,05116E-005	...........	65,63
	216	23,87	4,00540E-001	4,00353E-001	2,71116E-005	...........	65,63
	217	23,98	4,00473E-001	4,00332E-001	2,33116E-005	...........	65,61
	218	24,09	4,00416E-001	4,00315E-001	1,57116E-005	...........	65,63
	219	24,2	4,00371E-001	4,00299E-001	2,71116E-005	...........	65,62
	220	24,31	4,00339E-001	4,00239E-001	2,63116E-005	...........	65,63
	221	24,42	4,00310E-001	4,00137E-001	2,79116E-005	...........	65,61
	222	24,53	4,00271E-001	3,99942E-001	2,95116E-005	...........	65,63
	223	24,64	4,00203E-001	3,99759E-001	3,75116E-005	...........	65,62
	224	24,75	4,00094E-001	3,99543E-001	4,45116E-005	...........	65,63
	225	24,86	3,99945E-001	3,99443E-001	3,91116E-005	...........	65,63
	226	24,97	3,99777E-001	3,99363E-001	3,65116E-005	...........	65,62
	227	25,08	3,99617E-001	3,99334E-001	3,15116E-005	...........	65,62
	228	25,19	3,99488E-001	3,99264E-001	2,11116E-005	...........	65,63
	229	25,3	3,99394E-001	3,99190E-001	2,25116E-005	...........	65,62
	230	25,41	3,99323E-001	3,99117E-001	3,03116E-005	...........	65,62
	231	25,52	3,99258E-001	3,99038E-001	2,77116E-005	...........	65,61
	232	25,63	3,99192E-001	3,98966E-001	2,93116E-005	...........	65,63
	233	25,74	3,99120E-001	3,98879E-001	2,73116E-005	...........	65,61
	234	25,85	3,99046E-001	3,98824E-001	2,91116E-005	...........	65,62
	235	25,96	3,98970E-001	3,98742E-001	3,09116E-005	...........	65,62
	236	26,07	3,98896E-001	3,98679E-001	2,87116E-005	...........	65,63
	237	26,18	3,98823E-001	3,98579E-001	3,77116E-005	...........	65,61
	238	26,29	3,98749E-001	3,98491E-001	2,63116E-005	...........	65,63
	239	26,4	3,98669E-001	3,98343E-001	2,81116E-005	...........	65,62
	240	26,51	3,98578E-001	3,98184E-001	3,05116E-005	...........	65,62
	241	26,62	3,98469E-001	3,98013E-001	2,49116E-005	...........	65,62
	242	26,73	3,98339E-001	3,97887E-001	2,99116E-005	...........	65,62
	243	26,84	3,98196E-001	3,97817E-001	2,87116E-005	...........	65,60
	244	26,95	3,98055E-001	3,97768E-001	3,17116E-005	...........	65,62
	245	27,06	3,97936E-001	3,97733E-001	1,85116E-005	...........	65,62
	246	27,17	3,97845E-001	3,97683E-001	3,21116E-005	...........	65,62
	247	27,28	3,97780E-001	3,97630E-001	2,15116E-005	...........	65,62
	248	27,39	3,97728E-001	3,97539E-001	2,55116E-005	...........	65,62
	249	27,5	3,97677E-001	3,97480E-001	2,83116E-005	...........	65,60
	250	27,61	3,97619E-001	3,97418E-001	2,95116E-005	...........	65,64
	251	27,72	3,97554E-001	3,97350E-001	2,61116E-005	...........	65,61
	252	27,83	3,97488E-001	3,97287E-001	2,43116E-005	...........	65,62
	253	27,94	3,97421E-001	3,97157E-001	2,93116E-005	...........	65,62
	254	28,05	3,97348E-001	3,97057E-001	3,93116E-005	...........	65,62
	255	28,16	3,97263E-001	3,96879E-001	3,11116E-005	...........	65,61
	256	28,27	3,97161E-001	3,96780E-001	2,63116E-005	...........	65,63
	257	28,38	3,97042E-001	3,96660E-001	3,17116E-005	...........	65,63
	258	28,49	3,96917E-001	3,96566E-001	2,27116E-005	...........	65,63
	259	28,6	3,96795E-001	3,96499E-001	4,03116E-005	...........	65,62
	260	28,71	3,96684E-001	3,96377E-001	4,03116E-005	...........	65,62
	261	28,82	3,96583E-001	3,96298E-001	4,41116E-005	...........	65,62
	262	28,93	3,96488E-001	3,96199E-001	3,51116E-005	...........	65,62
	263	29,04	3,96395E-001	3,96150E-001	3,61116E-005	...........	65,62
	264	29,15	3,96306E-001	3,96067E-001	2,33116E-005	...........	65,62
	265	29,26	3,96224E-001	3,95995E-001	2,69116E-005	...........	65,62
	266	29,37	3,96147E-001	3,95895E-001	1,67116E-005	...........	65,64
	267	29,48	3,96070E-001	3,95808E-001	2,43116E-005	...........	65,63
	268	29,59	3,95989E-001	3,95733E-001	2,29116E-005	...........	65,63
	269	29,7	3,95905E-001	3,95645E-001	2,31116E-005	...........	65,62
	270	29,81	3,95821E-001	3,95590E-001	2,59116E-005	...........	65,64
	271	29,92	3,95740E-001	3,95532E-001	2,39116E-005	...........	65,62
	272	30,03	3,95666E-001	3,95493E-001	2,37116E-005	...........	65,62
	273	30,14	3,95600E-001	3,95405E-001	1,75116E-005	...........	65,62
	274	30,25	3,95538E-001	3,95298E-001	2,91116E-005	...........	65,63
	275	30,36	3,95472E-001	3,95180E-001	2,51116E-005	...........	65,62
	276	30,47	3,95393E-001	3,95068E-001	2,31116E-005	...........	65,62
	277	30,58	3,95298E-001	3,94980E-001	3,65116E-005	...........	65,62
	278	30,69	3,95194E-001	3,94877E-001	3,57116E-005	...........	65,62
	279	30,8	3,95089E-001	3,94791E-001	4,01116E-005	...........	65,62
	280	30,91	3,94987E-001	3,94679E-001	2,45116E-005	...........	65,62
	281	31,02	3,94888E-001	3,94606E-001	3,89116E-005	...........	65,61
	282	31,13	3,94793E-001	3,94542E-001	2,73116E-005	...........	65,62
	283	31,24	3,94703E-001	3,94469E-001	1,65116E-005	...........	65,62
	284	31,35	3,94621E-001	3,94397E-001	1,91116E-005	...........	65,61
	285	31,46	3,94545E-001	3,94309E-001	2,53116E-005	...........	65,63
	286	31,57	3,94471E-001	3,94223E-001	2,83116E-005	...........	65,63
	287	31,68	3,94395E-001	3,94143E-001	2,91116E-005	...........	65,62
	288	31,79	3,94315E-001	3,94066E-001	3,47116E-005	...........	65,62
	289	31,9	3,94233E-001	3,93998E-001	2,37116E-005	...........	65,62
	290	32,01	3,94154E-001	3,93938E-001	1,45116E-005	...........	65,63
	291	32,12	3,94079E-001	3,93898E-001	2,83116E-005	...........	65,62
	292	32,23	3,94011E-001	3,93819E-001	1,93116E-005	...........	65,64
	293	32,34	3,93948E-001	3,93731E-001	1,73116E-005	...........	65,62
	294	32,45	3,93884E-001	3,93605E-001	3,33116E-005	...........	65,62
	295	32,56	3,93809E-001	3,93498E-001	1,77116E-005	...........	65,61
	296	32,67	3,93720E-001	3,93405E-001	4,39116E-005	...........	65,63
	297	32,78	3,93619E-001	3,93300E-001	2,85116E-005	...........	65,61
	298	32,89	3,93516E-001	3,93229E-001	4,69116E-005	...........	65,63
	299	33	3,93415E-001	3,93105E-001	2,71116E-005	...........	65,61
	300	33,11	3,93317E-001	3,93028E-001	2,17116E-005	...........	65,63
	301	33,22	3,93221E-001	3,92953E-001	3,23116E-005	...........	65,62
	302	33,33	3,93129E-001	3,92902E-001	3,79116E-005	...........	65,62
	303	33,44	3,93044E-001	3,92815E-001	2,69116E-005	...........	65,61
	304	33,55	3,92967E-001	3,92740E-001	2,45116E-005	...........	65,61
	305	33,66	3,92894E-001	3,92660E-001	1,93116E-005	...........	65,61
	306	33,77	3,92820E-001	3,92560E-001	3,39116E-005	...........	65,62
	307	33,88	3,92742E-001	3,92494E-001	3,03116E-005	...........	65,61
	308	33,99	3,92661E-001	3,92420E-001	2,43116E-005	...........	65,61
	309	34,1	3,92580E-001	3,92369E-001	2,15116E-005	...........	65,61
	310	34,21	3,92504E-001	3,92310E-001	2,31116E-005	...........	65,61
	311	34,32	3,92436E-001	3,92270E-001	9,31157E-006	...........	65,63
	312	34,43	3,92374E-001	3,92189E-001	2,37116E-005	...........	65,63
	313	34,54	3,92316E-001	3,92083E-001	2,37116E-005	...........	65,62
	314	34,65	3,92252E-001	3,91958E-001	2,05116E-005	...........	65,61
	315	34,76	3,92174E-001	3,91830E-001	4,09116E-005	...........	65,61
	316	34,87	3,92078E-001	3,91752E-001	3,09116E-005	...........	65,61
	317	34,98	3,91969E-001	3,91622E-001	3,23116E-005	...........	65,61
	318	35,09	3,91858E-001	3,91548E-001	2,43116E-005	...........	65,61
	319	35,2	3,91750E-001	3,91423E-001	3,01116E-005	...........	65,60
	320	35,31	3,91646E-001	3,91374E-001	2,73116E-005	...........	65,62
	321	35,42	3,91548E-001	3,91310E-001	3,13116E-005	...........	65,61
	322	35,53	3,91459E-001	3,91247E-001	3,51116E-005	...........	65,61
	323	35,64	3,91382E-001	3,91154E-001	2,73116E-005	...........	65,60
	324	35,75	3,91310E-001	3,91074E-001	2,55116E-005	...........	65,62
	325	35,86	3,91238E-001	3,91001E-001	3,27116E-005	...........	65,61
	326	35,97	3,91162E-001	3,90902E-001	1,59116E-005	...........	65,59
	327	36,08	3,91082E-001	3,90843E-001	2,29116E-005	...........	65,61
	328	36,19	3,91002E-001	3,90764E-001	2,49116E-005	...........	65,61
	329	36,3	3,90923E-001	3,90732E-001	2,65116E-005	...........	65,61
	330	36,41	3,90851E-001	3,90679E-001	3,71116E-005	...........	65,61
	331	36,52	3,90787E-001	3,90625E-001	2,25116E-005	...........	65,61
	332	36,63	3,90731E-001	3,90518E-001	2,71116E-005	...........	65,62
	333	36,74	3,90672E-001	3,90417E-001	3,05116E-005	...........	65,63
	334	36,85	3,90603E-001	3,90290E-001	2,25116E-005	...........	65,60
	335	36,96	3,90517E-001	3,90180E-001	1,67116E-005	...........	65,61
	336	37,07	3,90416E-001	3,90085E-001	2,63116E-005	...........	65,61
	337	37,18	3,90307E-001	3,89973E-001	3,59116E-005	...........	65,62
	338	37,29	3,90197E-001	3,89889E-001	3,33116E-005	...........	65,61
	339	37,4	3,90091E-001	3,89791E-001	3,55116E-005	...........	65,62
	340	37,51	3,89991E-001	3,89751E-001	3,01116E-005	...........	65,60
	341	37,62	3,89900E-001	3,89671E-001	3,81116E-005	...........	65,61
	342	37,73	3,89819E-001	3,89611E-001	3,15116E-005	...........	65,61
	343	37,84	3,89746E-001	3,89503E-001	4,19116E-005	...........	65,62
	344	37,95	3,89675E-001	3,89436E-001	3,09116E-005	...........	65,60
	345	38,06	3,89600E-001	3,89347E-001	3,29116E-005	...........	65,61
	346	38,17	3,89520E-001	3,89280E-001	4,09116E-005	...........	65,62
	347	38,28	3,89440E-001	3,89205E-001	2,73116E-005	...........	65,62
	348	38,39	3,89362E-001	3,89156E-001	2,05116E-005	...........	65,60
	349	38,5	3,89288E-001	3,89120E-001	2,43116E-005	...........	65,61
	350	38,61	3,89224E-001	3,89069E-001	2,13116E-005	...........	65,62
	351	38,72	3,89168E-001	3,89025E-001	4,19116E-005	...........	65,61
	352	38,83	3,89117E-001	3,88904E-001	1,73116E-005	...........	65,61
	353	38,94	3,89063E-001	3,88810E-001	3,29116E-005	...........	65,61
	354	39,05	3,88994E-001	3,88647E-001	3,27116E-005	...........	65,60
	355	39,16	3,88905E-001	3,88556E-001	3,43116E-005	...........	65,62
	356	39,27	3,88797E-001	3,88415E-001	2,81116E-005	...........	65,61
	357	39,38	3,88679E-001	3,88323E-001	4,41116E-005	...........	65,61
	358	39,49	3,88558E-001	3,88221E-001	2,87116E-005	...........	65,62
	359	39,6	3,88443E-001	3,88171E-001	2,77116E-005	...........	65,61
	360	39,71	3,88340E-001	3,88120E-001	3,19116E-005	...........	65,62
	361	39,82	3,88253E-001	3,88054E-001	2,71116E-005	...........	65,61
	362	39,93	3,88180E-001	3,87973E-001	2,53116E-005	...........	65,61
	363	40,04	3,88114E-001	3,87880E-001	3,19116E-005	...........	65,62
	364	40,15	3,88047E-001	3,87817E-001	2,17116E-005	...........	65,61
	365	40,26	3,87973E-001	3,87727E-001	3,13116E-005	...........	65,62
	366	40,37	3,87896E-001	3,87668E-001	1,77116E-005	...........	65,62
	367	40,48	3,87819E-001	3,87593E-001	3,41116E-005	...........	65,62
	368	40,59	3,87744E-001	3,87556E-001	2,29116E-005	...........	65,59
	369	40,7	3,87675E-001	3,87511E-001	2,39116E-005	...........	65,61
	370	40,81	3,87614E-001	3,87472E-001	2,83116E-005	...........	65,61
	371	40,92	3,87561E-001	3,87415E-001	2,29116E-005	...........	65,61
	372	41,03	3,87513E-001	3,87317E-001	1,77116E-005	...........	65,61
	373	41,14	3,87461E-001	3,87227E-001	2,67116E-005	...........	65,61
	374	41,25	3,87396E-001	3,87056E-001	3,03116E-005	...........	65,61
	375	41,36	3,87311E-001	3,86963E-001	2,85116E-005	...........	65,62
	376	41,47	3,87206E-001	3,86809E-001	3,03116E-005	...........	65,61
	377	41,58	3,87087E-001	3,86713E-001	2,81116E-005	...........	65,61
	378	41,69	3,86962E-001	3,86615E-001	3,01116E-005	...........	65,61
	379	41,8	3,86842E-001	3,86572E-001	2,51116E-005	...........	65,62
	380	41,91	3,86736E-001	3,86521E-001	3,49116E-005	...........	65,61
	381	42,02	3,86648E-001	3,86446E-001	2,91116E-005	...........	65,62
	382	42,13	3,86577E-001	3,86381E-001	3,93116E-005	...........	65,61
	383	42,24	3,86513E-001	3,86283E-001	2,93116E-005	...........	65,62
	384	42,35	3,86447E-001	3,86224E-001	2,03116E-005	...........	65,60
	385	42,46	3,86375E-001	3,86127E-001	3,45116E-005	...........	65,62
	386	42,57	3,86300E-001	3,86075E-001	2,15116E-005	...........	65,61
	387	42,68	3,86223E-001	3,85998E-001	3,53116E-005	...........	65,63
	388	42,79	3,86148E-001	3,85959E-001	1,65116E-005	...........	65,62
	389	42,9	3,86080E-001	3,85917E-001	1,25116E-005	...........	65,61
	390	43,01	3,86019E-001	3,85883E-001	4,51157E-006	...........	65,61
	391	43,12	3,85967E-001	3,85842E-001	1,87116E-005	...........	65,61
	392	43,23	3,85922E-001	3,85752E-001	3,03116E-005	...........	65,62
	393	43,34	3,85876E-001	3,85680E-001	2,89116E-005	...........	65,61
	394	43,45	3,85821E-001	3,85534E-001	3,09116E-005	...........	65,62
	395	43,56	3,85749E-001	3,85393E-001	2,57116E-005	...........	65,63
	396	43,67	3,85653E-001	3,85238E-001	3,19116E-005	...........	65,62
	397	43,78	3,85536E-001	3,85149E-001	3,15116E-005	...........	65,63
	398	43,89	3,85407E-001	3,85041E-001	4,09116E-005	...........	65,61
	399	44	3,85280E-001	3,84985E-001	2,29116E-005	...........	65,62
	400	44,11	3,85167E-001	3,84938E-001	3,51116E-005	...........	65,62
	401	44,22	3,85074E-001	3,84879E-001	3,35116E-005	...........	65,62
	402	44,33	3,84999E-001	3,84821E-001	3,95116E-005	...........	65,62
	403	44,44	3,84937E-001	3,84720E-001	2,91116E-005	...........	65,62
	404	44,55	3,84875E-001	3,84664E-001	2,77116E-005	...........	65,62
	405	44,66	3,84809E-001	3,84570E-001	2,17116E-005	...........	65,62
	406	44,77	3,84737E-001	3,84517E-001	3,27116E-005	...........	65,62
	407	44,88	3,84663E-001	3,84443E-001	2,23116E-005	...........	65,62
	408	44,99	3,84589E-001	3,84388E-001	1,95116E-005	...........	65,61
	409	45,1	3,84520E-001	3,84351E-001	2,77116E-005	...........	65,62
	410	45,21	3,84458E-001	3,84318E-001	2,75116E-005	...........	65,61
	411	45,32	3,84404E-001	3,84296E-001	1,41116E-005	...........	65,62
	412	45,43	3,84360E-001	3,84253E-001	3,83116E-005	...........	65,61
	413	45,54	3,84323E-001	3,84188E-001	2,01116E-005	...........	65,61
	414	45,65	3,84284E-001	3,84048E-001	2,67116E-005	...........	65,62
	415	45,76	3,84232E-001	3,83946E-001	2,69116E-005	...........	65,62
	416	45,87	3,84157E-001	3,83763E-001	3,53116E-005	...........	65,61
	417	45,98	3,84054E-001	3,83628E-001	3,35116E-005	...........	65,62
	418	46,09	3,83929E-001	3,83496E-001	3,89116E-005	...........	65,62
	419	46,2	3,83791E-001	3,83422E-001	3,51116E-005	...........	65,62
	420	46,31	3,83657E-001	3,83372E-001	3,85116E-005	...........	65,61
	421	46,42	3,83540E-001	3,83328E-001	3,05116E-005	...........	65,61
	422	46,53	3,83450E-001	3,83278E-001	3,49116E-005	...........	65,62
	423	46,64	3,83382E-001	3,83192E-001	2,63116E-005	...........	65,62
	424	46,75	3,83323E-001	3,83097E-001	2,89116E-005	...........	65,62
	425	46,86	3,83261E-001	3,83029E-001	2,31116E-005	...........	65,61
	426	46,97	3,83191E-001	3,82970E-001	2,71116E-005	...........	65,62
	427	47,08	3,83116E-001	3,82888E-001	3,55116E-005	...........	65,61
	428	47,19	3,83042E-001	3,82833E-001	2,31116E-005	...........	65,62
	429	47,3	3,82971E-001	3,82779E-001	3,61116E-005	...........	65,61
	430	47,41	3,82904E-001	3,82747E-001	2,09116E-005	...........	65,62
	431	47,52	3,82845E-001	3,82720E-001	2,27116E-005	...........	65,61
	432	47,63	3,82795E-001	3,82694E-001	2,77116E-005	...........	65,62
	433	47,74	3,82755E-001	3,82654E-001	3,31116E-005	...........	65,61
	434	47,85	3,82720E-001	3,82550E-001	2,43116E-005	...........	65,61
	435	47,96	3,82680E-001	3,82443E-001	3,17116E-005	...........	65,62
	436	48,07	3,82622E-001	3,82290E-001	2,91116E-005	...........	65,62
	437	48,18	3,82539E-001	3,82146E-001	2,99116E-005	...........	65,62
	438	48,29	3,82429E-001	3,81972E-001	3,01116E-005	...........	65,61
	439	48,4	3,82298E-001	3,81863E-001	3,51116E-005	...........	65,62
	440	48,51	3,82156E-001	3,81808E-001	3,21116E-005	...........	65,62
	441	48,62	3,82021E-001	3,81763E-001	3,75116E-005	...........	65,62
	442	48,73	3,81911E-001	3,81729E-001	3,35116E-005	...........	65,62
	443	48,84	3,81829E-001	3,81669E-001	2,75116E-005	...........	65,62
	444	48,95	3,81769E-001	3,81585E-001	2,21116E-005	...........	65,62
	445	49,06	3,81716E-001	3,81505E-001	1,69116E-005	...........	65,62
	446	49,17	3,81657E-001	3,81432E-001	2,89116E-005	...........	65,62
	447	49,28	3,81589E-001	3,81366E-001	1,61116E-005	...........	65,61
	448	49,39	3,81516E-001	3,81299E-001	2,29116E-005	...........	65,62
	449	49,5	3,81444E-001	3,81245E-001	2,65116E-005	...........	65,61
	450	49,61	3,81375E-001	3,81187E-001	3,03116E-005	...........	65,62
	451	49,72	3,81310E-001	3,81149E-001	2,37116E-005	...........	65,61
	452	49,83	3,81252E-001	3,81124E-001	4,65116E-005	...........	65,62
	453	49,94	3,81202E-001	3,81102E-001	2,79116E-005	...........	65,61
	454	50,05	3,81161E-001	3,81073E-001	1,81116E-005	...........	65,63
	455	50,16	3,81128E-001	3,81009E-001	2,85116E-005	...........	65,62
	456	50,27	3,81095E-001	3,80935E-001	3,11116E-005	...........	65,62
	457	50,38	3,81054E-001	3,80793E-001	3,33116E-005	...........	65,61
	458	50,49	3,80993E-001	3,80618E-001	2,71116E-005	...........	65,62
	459	50,6	3,80902E-001	3,80490E-001	2,21116E-005	...........	65,62
	460	50,71	3,80784E-001	3,80338E-001	4,19116E-005	...........	65,61
	461	50,82	3,80647E-001	3,80270E-001	4,11116E-005	...........	65,62
	462	50,93	3,80510E-001	3,80188E-001	3,25116E-005	...........	65,62
	463	51,04	3,80388E-001	3,80154E-001	3,41116E-005	...........	65,62
	464	51,15	3,80289E-001	3,80098E-001	3,97116E-005	...........	65,62
	465	51,26	3,80213E-001	3,80039E-001	2,91116E-005	...........	65,62
	466	51,37	3,80151E-001	3,79971E-001	3,69116E-005	...........	65,62
	467	51,48	3,80095E-001	3,79875E-001	3,47116E-005	...........	65,62
	468	51,59	3,80034E-001	3,79830E-001	3,21116E-005	...........	65,60
	469	51,7	3,79967E-001	3,79738E-001	3,05116E-005	...........	65,61
	470	51,81	3,79896E-001	3,79693E-001	2,69116E-005	...........	65,61
	471	51,92	3,79826E-001	3,79620E-001	3,49116E-005	...........	65,62
	472	52,03	3,79758E-001	3,79581E-001	3,37116E-005	...........	65,62
	473	52,14	3,79695E-001	3,79535E-001	4,13116E-005	...........	65,62
	474	52,25	3,79637E-001	3,79482E-001	4,37116E-005	...........	65,62
	475	52,36	3,79584E-001	3,79404E-001	2,95116E-005	...........	65,62
	476	52,47	3,79530E-001	3,79297E-001	2,75116E-005	...........	65,62
	477	52,58	3,79469E-001	3,79215E-001	2,33116E-005	...........	65,61
	478	52,69	3,79394E-001	3,79105E-001	2,81116E-005	...........	65,62
	479	52,8	3,79309E-001	3,79011E-001	4,21116E-005	...........	65,61
	480	52,91	3,79214E-001	3,78881E-001	3,03116E-005	...........	65,62
	481	53,02	3,79114E-001	3,78779E-001	3,31116E-005	...........	65,60
	482	53,13	3,79008E-001	3,78678E-001	3,29116E-005	...........	65,61
	483	53,24	3,78900E-001	3,78611E-001	2,07116E-005	...........	65,61
	484	53,35	3,78797E-001	3,78578E-001	3,39116E-005	...........	65,62
	485	53,46	3,78708E-001	3,78548E-001	3,71116E-005	...........	65,61
	486	53,57	3,78638E-001	3,78491E-001	4,21116E-005	...........	65,61
	487	53,68	3,78584E-001	3,78434E-001	4,75116E-005	...........	65,61
	488	53,79	3,78537E-001	3,78364E-001	2,89116E-005	...........	65,63
	489	53,9	3,78487E-001	3,78305E-001	2,61116E-005	...........	65,62
	490	54,01	3,78432E-001	3,78220E-001	3,01116E-005	...........	65,62
	491	54,12	3,78369E-001	3,78147E-001	3,43116E-005	...........	65,63
	492	54,23	3,78301E-001	3,78082E-001	3,29116E-005	...........	65,63
	493	54,34	3,78230E-001	3,78028E-001	3,09116E-005	...........	65,61
	494	54,45	3,78160E-001	3,77983E-001	2,79116E-005	...........	65,61
	495	54,56	3,78096E-001	3,77946E-001	4,33116E-005	...........	65,61
	496	54,67	3,78040E-001	3,77929E-001	2,69116E-005	...........	65,61
	497	54,78	3,77995E-001	3,77913E-001	3,41116E-005	...........	65,62
	498	54,89	3,77959E-001	3,77894E-001	3,49116E-005	...........	65,61
	499	55	3,77932E-001	3,77844E-001	3,53116E-005	...........	65,61
	500	55,11	3,77908E-001	3,77775E-001	2,95116E-005	...........	65,61
	501	55,22	3,77876E-001	3,77661E-001	2,59116E-005	...........	65,61
	502	55,33	3,77825E-001	3,77460E-001	3,51116E-005	...........	65,62
	503	55,44	3,77745E-001	3,77322E-001	4,33116E-005	...........	65,60
	504	55,55	3,77629E-001	3,77127E-001	3,01116E-005	...........	65,62
	505	55,66	3,77486E-001	3,77062E-001	3,79116E-005	...........	65,61
	506	55,77	3,77335E-001	3,76987E-001	3,63116E-005	...........	65,61
	507	55,88	3,77198E-001	3,76946E-001	2,81116E-005	...........	65,61
	508	55,99	3,77089E-001	3,76888E-001	3,17116E-005	...........	65,61
	509	56,1	3,77007E-001	3,76821E-001	2,51116E-005	...........	65,62
	510	56,21	3,76943E-001	3,76765E-001	2,95116E-005	...........	65,61
	511	56,32	3,76885E-001	3,76672E-001	3,37116E-005	...........	65,63
	512	56,43	3,76824E-001	3,76621E-001	3,33116E-005	...........	65,62
	513	56,54	3,76758E-001	3,76536E-001	3,19116E-005	...........	65,62
	514	56,65	3,76689E-001	3,76492E-001	2,45116E-005	...........	65,62
	515	56,76	3,76620E-001	3,76413E-001	2,91116E-005	...........	65,61
	516	56,87	3,76554E-001	3,76377E-001	2,57116E-005	...........	65,62
	517	56,98	3,76491E-001	3,76348E-001	3,37116E-005	...........	65,61
	518	57,09	3,76436E-001	3,76323E-001	3,35116E-005	...........	65,61
	519	57,2	3,76390E-001	3,76306E-001	1,51116E-005	...........	65,62
	520	57,31	3,76355E-001	3,76258E-001	4,15116E-005	...........	65,62
	521	57,42	3,76324E-001	3,76198E-001	2,99116E-005	...........	65,61
	522	57,53	3,76290E-001	3,76071E-001	4,65116E-005	...........	65,62
	523	57,64	3,76241E-001	3,75929E-001	3,25116E-005	...........	65,61
	524	57,75	3,76165E-001	3,75737E-001	3,55116E-005	...........	65,61
	525	57,86	3,76056E-001	3,75571E-001	3,17116E-005	...........	65,60
	526	57,97	3,75918E-001	3,75464E-001	3,67116E-005	...........	65,62
	527	58,08	3,75767E-001	3,75404E-001	4,19116E-005	...........	65,61
	528	58,19	3,75625E-001	3,75364E-001	2,69116E-005	...........	65,61
	529	58,3	3,75510E-001	3,75329E-001	3,51116E-005	...........	65,61
	530	58,41	3,75428E-001	3,75292E-001	2,81116E-005	...........	65,62
	531	58,52	3,75371E-001	3,75208E-001	2,47116E-005	...........	65,61
	532	58,63	3,75323E-001	3,75160E-001	1,21116E-005	...........	65,61
	533	58,74	3,75274E-001	3,75074E-001	2,47116E-005	...........	65,60
	534	58,85	3,75218E-001	3,75023E-001	2,75116E-005	...........	65,62
	535	58,96	3,75155E-001	3,74957E-001	2,99116E-005	...........	65,61
	536	59,07	3,75091E-001	3,74901E-001	2,93116E-005	...........	65,62
	537	59,18	3,75027E-001	3,74842E-001	3,41116E-005	...........	65,61
	538	59,29	3,74965E-001	3,74785E-001	1,31116E-005	...........	65,61
	539	59,4	3,74906E-001	3,74755E-001	2,75116E-005	...........	65,61
	540	59,51	3,74851E-001	3,74729E-001	3,27116E-005	...........	65,60
	541	59,62	3,74803E-001	3,74719E-001	2,33116E-005	...........	65,61
	542	59,73	3,74766E-001	3,74702E-001	2,15116E-005	...........	65,61
	543	59,84	3,74739E-001	3,74671E-001	3,15116E-005	...........	65,60
	544	59,95	3,74716E-001	3,74587E-001	2,95116E-005	...........	65,62
