EXPLAIN
TAG	EISPOT
TITLE	LABEL	Potentiostatic EIS	Test Identifier
DATE	LABEL	6/4/2026	Date
TIME	LABEL	17:02:03	Time
NOTES	NOTES	1	Notes...
	
PSTAT	PSTAT	REF3000-46189	Potentiostat
VDC	POTEN	3,30198E-001	F	Last Measured Potential (V)
FREQINIT	QUANT	1,00000E+005	Initial Freq. (Hz)
FREQFINAL	QUANT	1,00000E-001	Final Freq. (Hz)
PTSPERDEC	QUANT	1,00000E+001	Points/decade
VAC	QUANT	5,00000E+000	AC Voltage (mV rms)
AREA	QUANT	2,50000E+001	Sample Area (cm^2)
SPEED	SELECTOR	1	Optimize for:
DRIFTCOR	SELECTOR	0	Drift Correction
THD	SELECTOR	0	THD
ZGUESS	QUANT	2,00000E-002	Estimated Z (ohms)
EOC	QUANT	0,0015745	Open Circuit (V)
SEQUENCER	TOGGLE	TRUE	Run as Sequence
PSTATMODEL	IQUANT	6	Pstat Model
PSTATSECTION	LABEL	REF30K-46189	Pstat Section
PSTATSERIALNO	LABEL	46189	Pstat Serial Number
CTRLMODE	IQUANT	1	Control Mode
ELECTROMETER	IQUANT	0	RE=0 or CS=1
IESTAB	IQUANT	0	I/E Stability
CASPEED	IQUANT	3	Control Amp Speed
CONVENTION	IQUANT	1	Current Convention
ICHRANGE	IQUANT	2	Ich Range
ICHRANGEMODE	TOGGLE	F	Ich Auto Range
ICHOFFSETENABLE	TOGGLE	T	Ich Offset Enable
ICHOFFSET	QUANT	0	Ich Offset (V)
ICHFILTER	IQUANT	3	Ich Filter
VCHRANGE	IQUANT	2	Vch Range
VCHRANGEMODE	TOGGLE	F	Vch Auto Range
VCHOFFSETENABLE	TOGGLE	T	Vch Offset Enable
VCHOFFSET	QUANT	0	Vch Offset (V)
VCHFILTER	IQUANT	3	Vch Filter
ACHRANGE	IQUANT	2	Ach Range
ACHOFFSETENABLE	TOGGLE	F	Ach Offset Enable
ACHOFFSET	QUANT	0	Ach Offset (V)
ACHFILTER	IQUANT	1	Ach Filter
IERANGELOWERLIMIT	IQUANT	13	I/E Range Lower Limit
IERANGEMODE	TOGGLE	F	I/E AutoRange
IERANGE	IQUANT	13	I/E Range
POSFEEDENABLE	TOGGLE	F	Positive Feedback IR Comp
POSFEEDRESISTANCE	QUANT	0	Positive Feedback Resistance (ohm)
ACHSELECT	IQUANT	4	Ach Select
SENSECABLEID	IQUANT	14	Sense Cable ID
PWRCABLEID	IQUANT	8	Power Cable ID
DCCALDATE	LABEL	10/1/2025	DC Calibration Date
ACCALDATE	LABEL	10/1/2025	AC Calibration Date
THERMOSELECT	IQUANT	1	Thermo Select
FRAMEWORKVERSION	LABEL	7.10.1	Framework Version
INSTRUMENTVERSION	LABEL	4.80	Instrument Version
COMMVERSION	LABEL	5.10	Communications Version
CPUPLDVERSION	LABEL	6.00	CPU PLD Version
CTRLPLDVERSION	LABEL	3.21	CTRL PLD Version
PSTATPLDVERSION	LABEL	0.00	PSTAT PLD Version
BOOSTERDCCALDATE	LABEL	10/1/2025	Booster DC Calibration Date
ZCURVE	TABLE
	Pt	Time	Freq	Zreal	Zimag	Zsig	Zmod	Zphz	Idc	Vdc	IERange	Imod	Vmod	Temp
	#	s	Hz	ohm	ohm	V	ohm	°	A	V	#	A	V	°C
	0	3	100078,1	0,0407409	0,0018786	1	0,0407842	2,640094	1,462751	0,3294539	13	0,1225922	0,0049769	67,39406
	1	4	79453,13	0,0409899	0,0009246	1	0,0410003	1,292169	1,462482	0,3294523	13	0,1659847	0,0067815	67,37099
	2	5	63140,62	0,041279	5,899356E-005	1	0,041279	0,0818838	1,4615	0,3294507	13	0,1448155	0,0059607	67,35893
	3	7	50203,12	0,0416587	-0,0006274	1	0,0416634	-0,8628859	1,461613	0,3294494	13	0,1289047	0,0053582	67,36913
	4	9	39890,62	0,0420366	-0,0012096	1	0,042054	-1,64817	1,460878	0,3294451	13	0,1210784	0,0050828	67,36758
	5	11	31640,63	0,0424444	-0,001724	1	0,0424794	-2,325958	1,459482	0,3294494	13	0,1174009	0,0049807	67,374
	6	12	25171,88	0,0429051	-0,002162	1	0,0429595	-2,884768	1,459943	0,3294536	13	0,11544	0,0049548	67,36288
	7	14	20015,62	0,043392	-0,0025485	1	0,0434668	-3,361244	1,459128	0,3294434	13	0,1140121	0,0049527	67,35552
	8	15	15890,62	0,0438826	-0,0028653	1	0,0439761	-3,735766	1,459382	0,3294481	13	0,1128697	0,0049616	67,35575
	9	17	12609,38	0,0444197	-0,0031554	1	0,0445316	-4,06319	1,459387	0,3294454	13	0,1117494	0,0049751	67,37029
	10	18	10078,13	0,0449581	-0,0034447	1	0,0450899	-4,381447	1,458989	0,3294397	13	0,1104014	0,0049771	67,34174
	11	20	8015,625	0,0454533	-0,0036689	1	0,0456011	-4,614733	1,458765	0,3294487	13	0,1092299	0,0049805	67,3604
	12	21	6328,125	0,0460523	-0,0039568	1	0,046222	-4,910741	1,458111	0,3294452	13	0,1080608	0,0049944	67,35278
	13	22	5015,625	0,0466539	-0,0042152	1	0,046844	-5,162666	1,458891	0,3294427	13	0,1064508	0,0049864	67,34377
	14	24	3984,375	0,0472246	-0,0044866	1	0,0474373	-5,427122	1,458395	0,3294446	13	0,1053787	0,0049987	67,34283
	15	26	3170,956	0,0478673	-0,0047252	1	0,0481	-5,637716	1,459535	0,3294483	13	0,1038089	0,0049931	67,33631
	16	27	2527,573	0,0485006	-0,0050545	1	0,0487633	-5,949562	1,45943	0,3294481	13	0,1025349	0,0049999	67,32864
	17	29	1976,103	0,0492381	-0,0054565	1	0,0495395	-6,323616	1,45932	0,3294429	13	0,1007727	0,0049922	67,33186
	18	30	1577,524	0,0499042	-0,0059073	1	0,0502526	-6,750867	1,458727	0,3294406	13	0,0995367	0,005002	67,32825
	19	32	1265,625	0,0506878	-0,0063127	1	0,0510794	-7,099075	1,458039	0,3294453	13	0,0978209	0,0049966	67,33019
	20	33	998,264	0,0515369	-0,0068782	1	0,0519939	-7,601869	1,458099	0,3294505	13	0,0961874	0,0050011	67,32838
	21	35	796,875	0,0524595	-0,0073942	1	0,0529781	-8,022996	1,457533	0,3294455	13	0,0942972	0,0049957	67,33174
	22	36	627,7902	0,0534719	-0,0081167	1	0,0540844	-8,631264	1,458391	0,3294467	13	0,092396	0,0049972	67,32494
	23	38	505,5147	0,054459	-0,0087637	1	0,0551597	-9,141846	1,45835	0,32944	13	0,0892852	0,004963	67,32182
	24	39	397,9953	0,0556658	-0,0095872	1	0,0564854	-9,77205	1,458406	0,3294399	13	0,0889237	0,0050455	67,30694
	25	41	315,5048	0,0569581	-0,01046	1	0,0579105	-10,40602	1,458518	0,3294368	13	0,0862264	0,0050069	67,30869
	26	42	252,4038	0,0582951	-0,011399	1	0,0593991	-11,064	1,458019	0,3294391	13	0,0839913	0,0049973	67,30368
	27	44	198,6229	0,0598659	-0,0124922	1	0,0611554	-11,78671	1,457372	0,3294384	13	0,0815843	0,0049944	67,3042
	28	45	158,3615	0,0614752	-0,0136168	1	0,0629652	-12,48941	1,457792	0,3294395	13	0,0792912	0,0049957	67,31037
	29	47	125,558	0,0632515	-0,01491	1	0,0649851	-13,26396	1,456943	0,3294405	13	0,0768504	0,0049961	67,30046
	30	48	100,4464	0,0651102	-0,0163564	1	0,0671332	-14,10157	1,456511	0,3294391	13	0,0743821	0,0049948	67,29769
	31	50	79,00281	0,0672911	-0,0180296	1	0,0696646	-14,99916	1,456421	0,329435	13	0,0717068	0,0049962	67,31034
	32	51	63,3446	0,0695096	-0,0197973	1	0,0722739	-15,89767	1,455761	0,3294348	13	0,0690594	0,0049917	67,29387
	33	53	50,22321	0,0720597	-0,0218748	1	0,0753068	-16,88641	1,45428	0,3294419	13	0,0661838	0,0049844	67,30177
	34	54	38,42213	0,0753957	-0,0246441	1	0,0793211	-18,10069	1,45464	0,3294432	13	0,0625109	0,0049586	67,28644
	35	56	31,25	0,0783297	-0,0270711	1	0,0828757	-19,06539	1,454205	0,3294364	13	0,0594427	0,0049265	67,29097
	36	57	24,93351	0,081978	-0,0299236	1	0,0872686	-20,05311	1,454915	0,3294376	13	0,0552555	0,0048221	67,29482
	37	59	19,86229	0,0862737	-0,0332069	1	0,0924438	-21,05177	1,453882	0,329425	13	0,0583135	0,0053908	67,29144
	38	60	15,625	0,0912037	-0,036853	1	0,098368	-22,00236	1,453907	0,3294286	13	0,050825	0,0049996	67,28252
	39	62	12,40079	0,0970955	-0,0408495	1	0,1053386	-22,81719	1,453822	0,329426	13	0,0474786	0,0050013	67,28384
	40	63	9,93114	0,103406	-0,0442641	1	0,1124816	-23,1739	1,453512	0,3294247	13	0,0444453	0,0049993	67,29686
	41	65	7,944915	0,1101989	-0,0474394	1	0,1199763	-23,29133	1,454841	0,3294278	13	0,0416735	0,0049998	67,29803
	42	67	6,317385	0,1190454	-0,0505103	1	0,1293178	-22,99124	1,453447	0,3294248	13	0,0386661	0,0050002	67,3154
	43	69	5,008013	0,1283681	-0,0532252	1	0,138965	-22,52032	1,454486	0,3294242	13	0,0359922	0,0050017	67,30872
	44	71	3,945707	0,138763	-0,0542267	1	0,1489822	-21,3449	1,454993	0,3294224	13	0,0335574	0,0049995	67,31897
	45	74	3,158693	0,1472231	-0,0540843	1	0,1568431	-20,17144	1,455119	0,3294264	13	0,0318811	0,0050003	67,32809
	46	77	2,504006	0,1587697	-0,0535619	1	0,167561	-18,64212	1,452836	0,3294279	13	0,0288624	0,0048428	67,31921
	47	80	1,998082	0,1688694	-0,0514968	1	0,1765469	-16,95912	1,453123	0,3294297	13	0,0288017	0,0050895	67,31335
	48	84	1,584686	0,1773815	-0,0484373	1	0,183876	-15,27332	1,451523	0,3294294	13	0,0273896	0,0050392	67,32187
	49	89	1,266892	0,1851022	-0,0447692	1	0,1904393	-13,59658	1,450881	0,3294293	13	0,0263265	0,0050155	67,33601
	50	94	0,999041	0,1913176	-0,0404757	1	0,1955523	-11,94553	1,450509	0,3294295	13	0,0255927	0,0050059	67,35241
	51	101	0,7923428	0,1976477	-0,03577	1	0,2008585	-10,25827	1,450086	0,3294286	13	0,0249065	0,0050034	67,38914
	52	107	0,6334459	0,2054642	-0,0299769	1	0,2076395	-8,300811	1,451216	0,329427	13	0,0240887	0,0050022	67,4149
	53	115	0,5040323	0,2022983	-0,0263338	1	0,204005	-7,416662	1,45029	0,329428	13	0,024506	0,0049996	67,44538
	54	125	0,400641	0,2065949	-0,0221799	1	0,2077821	-6,127765	1,451286	0,3294286	13	0,0240757	0,0050027	67,50519
	55	139	0,316723	0,2108782	-0,0206335	1	0,2118852	-5,588346	1,445669	0,3294307	13	0,0235969	0,0049999	67,47261
	56	153	0,2520161	0,2157968	-0,0185304	1	0,216591	-4,907921	1,445437	0,3294279	13	0,0230857	0,0050002	67,34517
	57	174	0,2003205	0,2187683	-0,0151133	1	0,2192897	-3,951914	1,440359	0,3294283	13	0,0228056	0,0050011	67,26531
	58	196	0,1588983	0,2183522	-0,0130675	1	0,2187429	-3,424834	1,437579	0,329428	13	0,0228582	0,0050001	67,20049
	59	228	0,1260081	0,2191027	-0,0104575	1	0,2193521	-2,732583	1,434976	0,3294278	13	0,0227923	0,0049996	67,19468
	60	258	0,1001603	0,2220721	-0,0067949	1	0,2221761	-1,752569	1,431769	0,3294288	13	0,0225048	0,005	67,34612
