EXPLAIN
TAG	EISPOT
TITLE	LABEL	Potentiostatic EIS	Test Identifier
DATE	LABEL	18/3/2026	Date
TIME	LABEL	19:11:46	Time
NOTES	NOTES	1	Notes...
	
PSTAT	PSTAT	REF3000-46189	Potentiostat
VDC	POTEN	2,13973E+000	F	Last Measured Potential (V)
FREQINIT	QUANT	1,00000E+005	Initial Freq. (Hz)
FREQFINAL	QUANT	1,00000E-001	Final Freq. (Hz)
PTSPERDEC	QUANT	1,00000E+001	Points/decade
VAC	QUANT	5,00000E+000	AC Voltage (mV rms)
AREA	QUANT	2,50000E+001	Sample Area (cm^2)
SPEED	SELECTOR	1	Optimize for:
DRIFTCOR	SELECTOR	0	Drift Correction
THD	SELECTOR	0	THD
ZGUESS	QUANT	2,00000E-002	Estimated Z (ohms)
EOC	QUANT	0,3170002	Open Circuit (V)
SEQUENCER	TOGGLE	TRUE	Run as Sequence
PSTATMODEL	IQUANT	6	Pstat Model
PSTATSECTION	LABEL	REF30K-46189	Pstat Section
PSTATSERIALNO	LABEL	46189	Pstat Serial Number
CTRLMODE	IQUANT	1	Control Mode
ELECTROMETER	IQUANT	0	RE=0 or CS=1
IESTAB	IQUANT	0	I/E Stability
CASPEED	IQUANT	3	Control Amp Speed
CONVENTION	IQUANT	1	Current Convention
ICHRANGE	IQUANT	2	Ich Range
ICHRANGEMODE	TOGGLE	F	Ich Auto Range
ICHOFFSETENABLE	TOGGLE	T	Ich Offset Enable
ICHOFFSET	QUANT	0	Ich Offset (V)
ICHFILTER	IQUANT	3	Ich Filter
VCHRANGE	IQUANT	2	Vch Range
VCHRANGEMODE	TOGGLE	F	Vch Auto Range
VCHOFFSETENABLE	TOGGLE	T	Vch Offset Enable
VCHOFFSET	QUANT	0	Vch Offset (V)
VCHFILTER	IQUANT	3	Vch Filter
ACHRANGE	IQUANT	2	Ach Range
ACHOFFSETENABLE	TOGGLE	F	Ach Offset Enable
ACHOFFSET	QUANT	0	Ach Offset (V)
ACHFILTER	IQUANT	1	Ach Filter
IERANGELOWERLIMIT	IQUANT	13	I/E Range Lower Limit
IERANGEMODE	TOGGLE	F	I/E AutoRange
IERANGE	IQUANT	13	I/E Range
POSFEEDENABLE	TOGGLE	F	Positive Feedback IR Comp
POSFEEDRESISTANCE	QUANT	0	Positive Feedback Resistance (ohm)
ACHSELECT	IQUANT	4	Ach Select
SENSECABLEID	IQUANT	14	Sense Cable ID
PWRCABLEID	IQUANT	8	Power Cable ID
DCCALDATE	LABEL	10/1/2025	DC Calibration Date
ACCALDATE	LABEL	10/1/2025	AC Calibration Date
THERMOSELECT	IQUANT	1	Thermo Select
FRAMEWORKVERSION	LABEL	7.10.1	Framework Version
INSTRUMENTVERSION	LABEL	4.80	Instrument Version
COMMVERSION	LABEL	5.10	Communications Version
CPUPLDVERSION	LABEL	6.00	CPU PLD Version
CTRLPLDVERSION	LABEL	3.21	CTRL PLD Version
PSTATPLDVERSION	LABEL	0.00	PSTAT PLD Version
BOOSTERDCCALDATE	LABEL	10/1/2025	Booster DC Calibration Date
ZCURVE	TABLE
	Pt	Time	Freq	Zreal	Zimag	Zsig	Zmod	Zphz	Idc	Vdc	IERange	Imod	Vmod	Temp
	#	s	Hz	ohm	ohm	V	ohm	°	A	V	#	A	V	°C
	0	4	100078,1	0,0114564	0,0043485	1	0,0122539	20,78505	17,70516	2,136212	13	0,4096974	0,0049991	62,99396
	1	6	79453,13	0,0113179	0,0035285	1	0,0118552	17,31549	17,69169	2,136212	13	0,5664229	0,0066929	62,9856
	2	7	63140,62	0,0112103	0,0028526	1	0,0115675	14,27676	17,67993	2,136206	13	0,5648131	0,0065156	63,00201
	3	9	50203,12	0,0111164	0,0022971	1	0,0113513	11,67512	17,67835	2,136202	13	0,558491	0,0063255	62,98868
	4	11	39890,62	0,0110496	0,0018331	1	0,0112006	9,419457	17,67509	2,136214	13	0,5669339	0,0063391	63,00356
	5	12	31640,63	0,0110023	0,0014494	1	0,0110974	7,504835	17,6784	2,13623	13	0,5585003	0,0061901	63,00525
	6	14	25171,88	0,0109722	0,0011416	1	0,0110314	5,939817	17,67348	2,136214	13	0,549381	0,0060551	63,00549
	7	15	20015,62	0,0109565	0,0008814	1	0,0109919	4,599403	17,66827	2,1362	13	0,5386886	0,0059177	62,99179
	8	17	15890,62	0,0109521	0,0006717	1	0,0109727	3,509758	17,66427	2,136192	13	0,5267575	0,0057777	62,99727
	9	19	12609,38	0,0109535	0,000501	1	0,0109649	2,618655	17,65884	2,136195	13	0,5141252	0,0056359	62,98443
	10	20	10078,13	0,0109587	0,0003658	1	0,0109648	1,91194	17,65863	2,136216	13	0,4975477	0,0054546	62,97073
	11	22	8015,625	0,0109706	0,0002486	1	0,0109734	1,29833	17,65271	2,136185	13	0,4869266	0,0053427	62,96885
	12	24	6328,125	0,0109842	0,0001404	1	0,0109851	0,7325623	17,65273	2,136195	13	0,4781287	0,0052519	62,96944
	13	25	5015,625	0,0109983	5,743912E-005	1	0,0109984	0,2992277	17,65529	2,136206	13	0,4700389	0,0051695	62,9674
	14	27	3984,375	0,0110178	-1,997733E-005	1	0,0110178	-0,103888	17,65255	2,136201	13	0,4642541	0,0051149	62,9677
	15	29	3170,956	0,0110395	-9,179845E-005	1	0,0110399	-0,4764298	17,65086	2,136194	13	0,4592418	0,0050699	62,9746
	16	30	2527,573	0,0110634	-0,0001602	1	0,0110646	-0,8296732	17,65603	2,136194	13	0,4556466	0,0050415	62,95454
	17	32	1976,103	0,0110969	-0,0002286	1	0,0110993	-1,180369	17,65666	2,136201	13	0,4528709	0,0050265	62,9648
	18	34	1577,524	0,0111375	-0,0002955	1	0,0111414	-1,519665	17,6536	2,136205	13	0,4502415	0,0050163	62,95904
	19	35	1265,625	0,0111785	-0,0003644	1	0,0111844	-1,867203	17,65655	2,136189	13	0,4475802	0,0050059	62,97346
	20	37	998,264	0,0112335	-0,0004411	1	0,0112422	-2,248714	17,66028	2,136222	13	0,4448672	0,0050013	62,9815
	21	39	796,875	0,011295	-0,0005162	1	0,0113068	-2,616548	17,66029	2,136206	13	0,4425244	0,0050035	62,98493
	22	40	627,7902	0,0113775	-0,0006006	1	0,0113933	-3,021883	17,66403	2,136179	13	0,4385914	0,004997	62,99908
	23	42	505,5147	0,0114644	-0,0006878	1	0,011485	-3,433164	17,66159	2,136174	13	0,428362	0,0049578	63,00243
	24	43	397,9953	0,0115869	-0,0007795	1	0,0116131	-3,848801	17,66513	2,136198	13	0,4318846	0,0050381	63,02362
	25	45	315,5048	0,0117292	-0,0008648	1	0,011761	-4,216767	17,67199	2,136203	13	0,4244746	0,0050057	63,02547
	26	46	252,4038	0,0118894	-0,0009335	1	0,011926	-4,489181	17,67171	2,136172	13	0,4182549	0,0049964	63,05039
	27	48	198,6229	0,0120824	-0,0009861	1	0,0121225	-4,666013	17,67408	2,136179	13	0,4116597	0,0049954	63,06319
	28	49	158,3615	0,0122816	-0,0010055	1	0,0123227	-4,680589	17,67884	2,136189	13	0,4051118	0,0049952	63,06739
	29	51	125,558	0,0124848	-0,0009917	1	0,0125241	-4,541552	17,68142	2,13619	13	0,3987317	0,0049957	63,08208
	30	53	100,4464	0,0126694	-0,0009468	1	0,0127047	-4,274032	17,67958	2,136207	13	0,3930731	0,0049951	63,09695
	31	54	79,00281	0,0128432	-0,0008846	1	0,0128736	-3,940074	17,68106	2,136199	13	0,3880516	0,0049964	63,10669
	32	56	63,3446	0,0129958	-0,0008089	1	0,013021	-3,561602	17,66776	2,136187	13	0,3835978	0,0049953	63,10771
	33	58	50,22321	0,013113	-0,000733	1	0,0131335	-3,199407	17,65943	2,136206	13	0,3794589	0,0049839	63,11823
	34	59	38,42213	0,0132246	-0,0006472	1	0,0132404	-2,801701	17,66198	2,13618	13	0,3749025	0,0049641	63,12514
	35	61	31,25	0,0132876	-0,0005917	1	0,0133008	-2,549717	17,66327	2,136192	13	0,3710161	0,0049349	63,12156
	36	63	24,93351	0,0133484	-0,0005224	1	0,0133586	-2,240976	17,66036	2,136181	13	0,3630125	0,0048494	63,13639
	37	64	19,86229	0,0133734	-0,0004917	1	0,0133824	-2,105619	17,66071	2,136175	13	0,3986599	0,0053351	63,13036
	38	66	15,625	0,0136238	-0,0004764	1	0,0136321	-2,002858	17,65825	2,136177	13	0,366479	0,0049959	63,13343
	39	67	12,40079	0,0134725	-0,0004731	1	0,0134808	-2,011205	17,65478	2,136177	13	0,3713031	0,0050055	63,13492
	40	69	9,93114	0,0135815	-0,0004387	1	0,0135886	-1,849936	17,65383	2,13615	13	0,367445	0,0049931	63,14345
	41	70	7,944915	0,0136531	-0,000315	1	0,0136567	-1,321531	17,65332	2,136169	13	0,3668869	0,0050105	63,14435
	42	72	6,317385	0,0136717	-0,0003542	1	0,0136763	-1,484254	17,64746	2,136171	13	0,3657206	0,0050017	63,14381
	43	74	5,008013	0,0138141	-0,0004249	1	0,0138207	-1,761657	17,64289	2,136176	13	0,3609925	0,0049892	63,13065
	44	77	3,945707	0,0137863	-0,0003985	1	0,013792	-1,65576	17,64264	2,136161	13	0,3626625	0,0050019	63,12838
	45	79	3,158693	0,0137963	-0,0004595	1	0,0138039	-1,907619	17,63952	2,136168	13	0,3622202	0,0050001	63,13058
	46	82	2,504006	0,0138559	-0,0004848	1	0,0138644	-2,004036	17,63677	2,136169	13	0,3491216	0,0048469	63,10809
	47	85	1,998082	0,0139446	-0,000483	1	0,013953	-1,983603	17,63741	2,136176	13	0,3644934	0,0050904	63,07849
	48	91	1,584686	0,013979	-0,0005017	1	0,013988	-2,055458	17,63261	2,136174	13	0,3599224	0,0050375	63,06303
	49	96	1,266892	0,0140621	-0,0005526	1	0,0140729	-2,250439	17,62584	2,136171	13	0,3561722	0,0050143	63,01939
	50	104	0,999041	0,0141299	-0,0005671	1	0,0141413	-2,298144	17,62074	2,136171	13	0,3536357	0,005002	62,98331
	51	109	0,7923428	0,0142696	-0,0005681	1	0,0142809	-2,279877	17,61862	2,13617	13	0,3510846	0,0050146	62,97149
	52	117	0,6334459	0,0143628	-0,0005891	1	0,0143749	-2,348626	17,62583	2,13617	13	0,3479713	0,0050025	62,99158
	53	125	0,5040323	0,0144683	-0,0006306	1	0,014482	-2,495498	17,63522	2,13617	13	0,3449294	0,0049956	63,02924
	54	137	0,400641	0,0145457	-0,0006318	1	0,0145594	-2,487022	17,64636	2,136166	13	0,343522	0,0050017	63,06003
	55	151	0,316723	0,0145951	-0,0006565	1	0,0146098	-2,575491	17,63772	2,136171	13	0,3424585	0,0050034	63,02909
	56	168	0,2520161	0,0147341	-0,0006453	1	0,0147483	-2,50787	17,63275	2,136174	13	0,3389034	0,0049983	62,9863
	57	189	0,2003205	0,0148329	-0,0006164	1	0,0148457	-2,37953	17,61693	2,136175	13	0,3369223	0,0050019	62,97678
	58	216	0,1588983	0,0149542	-0,0006291	1	0,0149674	-2,408977	17,62788	2,136177	13	0,3340621	0,0050001	63,00296
	59	241	0,1260081	0,015101	-0,0006172	1	0,0151136	-2,34058	17,63966	2,136181	13	0,3308208	0,0049999	63,10167
	60	272	0,1001603	0,0151641	-0,0005816	1	0,0151752	-2,196423	17,63298	2,136173	13	0,3294113	0,0049989	63,10759
