EXPLAIN
TAG	EISPOT
TITLE	LABEL	Potentiostatic EIS	Test Identifier
DATE	LABEL	26/3/2026	Date
TIME	LABEL	11:22:35	Time
NOTES	NOTES	1	Notes...
	
PSTAT	PSTAT	REF3000-46189	Potentiostat
VDC	POTEN	2,58447E+000	F	Last Measured Potential (V)
FREQINIT	QUANT	1,00000E+005	Initial Freq. (Hz)
FREQFINAL	QUANT	1,00000E-001	Final Freq. (Hz)
PTSPERDEC	QUANT	1,00000E+001	Points/decade
VAC	QUANT	5,00000E+000	AC Voltage (mV rms)
AREA	QUANT	2,50000E+001	Sample Area (cm^2)
SPEED	SELECTOR	1	Optimize for:
DRIFTCOR	SELECTOR	0	Drift Correction
THD	SELECTOR	0	THD
ZGUESS	QUANT	2,00000E-002	Estimated Z (ohms)
EOC	QUANT	0,2162097	Open Circuit (V)
SEQUENCER	TOGGLE	TRUE	Run as Sequence
PSTATMODEL	IQUANT	6	Pstat Model
PSTATSECTION	LABEL	REF30K-46189	Pstat Section
PSTATSERIALNO	LABEL	46189	Pstat Serial Number
CTRLMODE	IQUANT	1	Control Mode
ELECTROMETER	IQUANT	0	RE=0 or CS=1
IESTAB	IQUANT	0	I/E Stability
CASPEED	IQUANT	3	Control Amp Speed
CONVENTION	IQUANT	1	Current Convention
ICHRANGE	IQUANT	2	Ich Range
ICHRANGEMODE	TOGGLE	F	Ich Auto Range
ICHOFFSETENABLE	TOGGLE	T	Ich Offset Enable
ICHOFFSET	QUANT	0	Ich Offset (V)
ICHFILTER	IQUANT	3	Ich Filter
VCHRANGE	IQUANT	2	Vch Range
VCHRANGEMODE	TOGGLE	F	Vch Auto Range
VCHOFFSETENABLE	TOGGLE	T	Vch Offset Enable
VCHOFFSET	QUANT	0	Vch Offset (V)
VCHFILTER	IQUANT	3	Vch Filter
ACHRANGE	IQUANT	2	Ach Range
ACHOFFSETENABLE	TOGGLE	F	Ach Offset Enable
ACHOFFSET	QUANT	0	Ach Offset (V)
ACHFILTER	IQUANT	1	Ach Filter
IERANGELOWERLIMIT	IQUANT	13	I/E Range Lower Limit
IERANGEMODE	TOGGLE	F	I/E AutoRange
IERANGE	IQUANT	13	I/E Range
POSFEEDENABLE	TOGGLE	F	Positive Feedback IR Comp
POSFEEDRESISTANCE	QUANT	0	Positive Feedback Resistance (ohm)
ACHSELECT	IQUANT	4	Ach Select
SENSECABLEID	IQUANT	14	Sense Cable ID
PWRCABLEID	IQUANT	8	Power Cable ID
DCCALDATE	LABEL	10/1/2025	DC Calibration Date
ACCALDATE	LABEL	10/1/2025	AC Calibration Date
THERMOSELECT	IQUANT	1	Thermo Select
FRAMEWORKVERSION	LABEL	7.10.1	Framework Version
INSTRUMENTVERSION	LABEL	4.80	Instrument Version
COMMVERSION	LABEL	5.10	Communications Version
CPUPLDVERSION	LABEL	6.00	CPU PLD Version
CTRLPLDVERSION	LABEL	3.21	CTRL PLD Version
PSTATPLDVERSION	LABEL	0.00	PSTAT PLD Version
BOOSTERDCCALDATE	LABEL	10/1/2025	Booster DC Calibration Date
ZCURVE	TABLE
	Pt	Time	Freq	Zreal	Zimag	Zsig	Zmod	Zphz	Idc	Vdc	IERange	Imod	Vmod	Temp
	#	s	Hz	ohm	ohm	V	ohm	°	A	V	#	A	V	°C
	0	4	100078,1	0,0138955	0,0041353	1	0,0144978	16,57292	8,747583	2,580919	13	0,3464197	0,005001	65,2121
	1	6	79453,13	0,0137988	0,0032851	1	0,0141845	13,3912	8,740747	2,580888	13	0,4728672	0,0066853	65,21758
	2	8	63140,62	0,0137341	0,0025866	1	0,0139756	10,66597	8,738012	2,580869	13	0,4668308	0,0065064	65,23444
	3	9	50203,12	0,0136876	0,0020058	1	0,0138338	8,336668	8,736306	2,580871	13	0,4596596	0,0063447	65,24448
	4	11	39890,62	0,0136591	0,001507	1	0,0137419	6,295854	8,735061	2,580847	13	0,4612244	0,0063272	65,2516
	5	12	31640,63	0,0136599	0,0010869	1	0,0137031	4,549397	8,737127	2,580848	13	0,453001	0,0061997	65,25941
	6	14	25171,88	0,0136845	0,0007382	1	0,0137044	3,087956	8,739935	2,580862	13	0,4426436	0,0060608	65,28676
	7	16	20015,62	0,0137232	0,000433	1	0,01373	1,807419	8,740228	2,58083	13	0,4314344	0,0059201	65,30122
	8	18	15890,62	0,0137756	0,0001723	1	0,0137767	0,7165265	8,742846	2,580901	13	0,4198181	0,0057814	65,30785
	9	19	12609,38	0,0138418	-7,068064E-005	1	0,013842	-0,2925676	8,746694	2,580891	13	0,4045869	0,0055989	65,32249
	10	21	10078,13	0,0139197	-0,0002739	1	0,0139224	-1,127423	8,744202	2,580851	13	0,3899419	0,005428	65,33314
	11	22	8015,625	0,0140118	-0,0004716	1	0,0140198	-1,927646	8,749089	2,580865	13	0,3789134	0,0053117	65,36615
	12	24	6328,125	0,0141275	-0,0006675	1	0,0141433	-2,705088	8,750498	2,580848	13	0,3691404	0,0052205	65,37328
	13	26	5015,625	0,0142536	-0,0008561	1	0,0142793	-3,437187	8,755489	2,580837	13	0,3600523	0,0051411	65,37679
	14	28	3984,375	0,0143972	-0,0010493	1	0,0144354	-4,168576	8,752419	2,580842	13	0,3524253	0,0050873	65,38715
	15	29	3170,956	0,0145604	-0,0012461	1	0,0146137	-4,891689	8,759839	2,580862	13	0,3453641	0,0050469	65,41666
	16	31	2527,573	0,0147383	-0,0014516	1	0,0148097	-5,625055	8,757544	2,580833	13	0,3391935	0,0050233	65,42398
	17	33	1976,103	0,0149585	-0,0016848	1	0,0150531	-6,426333	8,768819	2,580857	13	0,3331236	0,0050145	65,43871
	18	34	1577,524	0,0152016	-0,0019179	1	0,0153221	-7,190672	8,767578	2,580872	13	0,3264345	0,0050016	65,44347
	19	36	1265,625	0,0154649	-0,0021579	1	0,0156147	-7,943412	8,768066	2,58085	13	0,3201334	0,0049988	65,45881
	20	37	998,264	0,0157896	-0,0024326	1	0,0159759	-8,758239	8,768611	2,580837	13	0,3127336	0,0049962	65,48012
	21	39	796,875	0,0161378	-0,0027086	1	0,0163635	-9,528	8,772921	2,580855	13	0,305196	0,0049941	65,49414
	22	41	627,7902	0,0165597	-0,0030225	1	0,0168332	-10,34395	8,777025	2,580855	13	0,2965258	0,0049915	65,49916
	23	42	505,5147	0,0170002	-0,0033047	1	0,0173185	-11,00063	8,778652	2,580823	13	0,2838979	0,0049547	65,50381
	24	44	397,9953	0,0175311	-0,0036234	1	0,0179017	-11,67762	8,780891	2,580825	13	0,2801068	0,005037	65,52271
	25	45	315,5048	0,0181109	-0,0039275	1	0,0185319	-12,23557	8,783401	2,580858	13	0,2692199	0,0050026	65,53872
	26	47	252,4038	0,0187153	-0,0042094	1	0,0191828	-12,67605	8,783525	2,580823	13	0,2600207	0,0049963	65,52425
	27	48	198,6229	0,0194116	-0,0045039	1	0,0199273	-13,06273	8,785479	2,580815	13	0,2503458	0,0049937	65,55158
	28	50	158,3615	0,0201175	-0,0047705	1	0,0206754	-13,34039	8,786246	2,580833	13	0,241382	0,0049938	65,53875
	29	51	125,558	0,0208842	-0,0050271	1	0,0214808	-13,53443	8,787879	2,580868	13	0,2323839	0,0049937	65,55454
	30	53	100,4464	0,0216562	-0,0052509	1	0,0222837	-13,62919	8,788801	2,580821	13	0,2241338	0,0049958	65,55015
	31	55	79,00281	0,0225063	-0,0054875	1	0,0231656	-13,70256	8,789541	2,580844	13	0,2154412	0,0049916	65,55436
	32	56	63,3446	0,0233354	-0,0056866	1	0,0240183	-13,69542	8,792694	2,580853	13	0,2078659	0,0049931	65,55155
	33	58	50,22321	0,024193	-0,005846	1	0,0248893	-13,5846	8,791219	2,580859	13	0,2002588	0,0049846	65,55659
	34	59	38,42213	0,0252336	-0,0060769	1	0,0259551	-13,54039	8,793445	2,580823	13	0,1910915	0,00496	65,55746
	35	61	31,25	0,0260762	-0,0062373	1	0,0268118	-13,45211	8,796731	2,580852	13	0,1836842	0,004925	65,55979
	36	62	24,93351	0,0269359	-0,0064372	1	0,0276944	-13,44049	8,800272	2,58085	13	0,1741964	0,0048243	65,55488
	37	64	19,86229	0,027806	-0,0065911	1	0,0285765	-13,33517	8,7987	2,580841	13	0,1883775	0,0053832	65,56263
	38	65	15,625	0,0289077	-0,0068722	1	0,0297134	-13,37262	8,802151	2,580777	13	0,1682666	0,0049998	65,56223
	39	67	12,40079	0,0298012	-0,007207	1	0,0306602	-13,59526	8,794411	2,580843	13	0,1632831	0,0050063	65,55174
	40	69	9,93114	0,0309009	-0,007429	1	0,0317814	-13,51818	8,79311	2,580834	13	0,1573542	0,005001	65,54515
	41	70	7,944915	0,0317395	-0,0076827	1	0,0326561	-13,607	8,78394	2,580855	13	0,1530344	0,0049975	65,53683
	42	72	6,317385	0,0327967	-0,0081476	1	0,0337936	-13,95135	8,782121	2,580811	13	0,1481225	0,0050056	65,53915
	43	75	5,008013	0,0338349	-0,008685	1	0,0349318	-14,39635	8,788356	2,580839	13	0,1429357	0,004993	65,52136
	44	78	3,945707	0,0351425	-0,0090314	1	0,0362845	-14,41277	8,789164	2,580828	13	0,1379556	0,0050056	65,49908
	45	81	3,158693	0,0364963	-0,0095893	1	0,037735	-14,72161	8,790651	2,580838	13	0,1324281	0,0049972	65,4921
	46	84	2,504006	0,037799	-0,0101856	1	0,0391473	-15,0811	8,790907	2,580836	13	0,1235043	0,0048414	65,4931
	47	88	1,998082	0,0395026	-0,0107288	1	0,0409336	-15,19485	8,795164	2,58084	13	0,1243768	0,0050958	65,46308
	48	92	1,584686	0,0410797	-0,0114569	1	0,0426475	-15,58348	8,799105	2,580843	13	0,1180165	0,005036	65,43114
	49	98	1,266892	0,0429606	-0,0123977	1	0,0447137	-16,09719	8,810197	2,580839	13	0,1119355	0,0050069	65,41634
	50	103	0,999041	0,0446729	-0,0130355	1	0,0465359	-16,2672	8,824021	2,58084	13	0,1076281	0,0050097	65,42419
	51	109	0,7923428	0,0470678	-0,0142961	1	0,049191	-16,89527	8,873914	2,580834	13	0,1017871	0,0050078	65,46843
	52	117	0,6334459	0,0491005	-0,0149948	1	0,0513391	-16,98215	8,895085	2,580824	13	0,0974056	0,0050012	65,5003
	53	126	0,5040323	0,0514418	-0,0157211	1	0,0537905	-16,99368	8,907334	2,580826	13	0,0929593	0,0050006	65,50106
	54	136	0,400641	0,0535691	-0,0160829	1	0,0559313	-16,71116	8,928339	2,580824	13	0,0895011	0,0050061	65,5312
	55	150	0,316723	0,0577897	-0,0181662	1	0,0605777	-17,45055	8,968729	2,580822	13	0,0825289	0,0049995	65,62541
	56	167	0,2520161	0,0616558	-0,0196273	1	0,0647044	-17,65815	9,021928	2,580821	13	0,077212	0,004996	65,69319
	57	188	0,2003205	0,0638937	-0,0207961	1	0,0671929	-18,029	9,062363	2,580815	13	0,0745202	0,0050073	65,68683
	58	215	0,1588983	0,0705107	-0,0249828	1	0,0748057	-19,50987	9,12447	2,580817	13	0,0668049	0,0049974	65,7604
	59	240	0,1260081	0,0724782	-0,0248133	1	0,076608	-18,89894	9,190985	2,58081	13	0,0652297	0,0049971	65,74668
	60	279	0,1001603	0,0797765	-0,0273174	1	0,084324	-18,90241	9,319399	2,580809	13	0,0593137	0,0050016	65,8754
