EXPLAIN
TAG	EISPOT
TITLE	LABEL	Potentiostatic EIS	Test Identifier
DATE	LABEL	6/4/2026	Date
TIME	LABEL	17:18:55	Time
NOTES	NOTES	1	Notes...
	
PSTAT	PSTAT	REF3000-46189	Potentiostat
VDC	POTEN	2,28725E+000	F	Last Measured Potential (V)
FREQINIT	QUANT	1,00000E+005	Initial Freq. (Hz)
FREQFINAL	QUANT	1,00000E-001	Final Freq. (Hz)
PTSPERDEC	QUANT	1,00000E+001	Points/decade
VAC	QUANT	5,00000E+000	AC Voltage (mV rms)
AREA	QUANT	2,50000E+001	Sample Area (cm^2)
SPEED	SELECTOR	1	Optimize for:
DRIFTCOR	SELECTOR	0	Drift Correction
THD	SELECTOR	0	THD
ZGUESS	QUANT	2,00000E-002	Estimated Z (ohms)
EOC	QUANT	0,0015745	Open Circuit (V)
SEQUENCER	TOGGLE	TRUE	Run as Sequence
PSTATMODEL	IQUANT	6	Pstat Model
PSTATSECTION	LABEL	REF30K-46189	Pstat Section
PSTATSERIALNO	LABEL	46189	Pstat Serial Number
CTRLMODE	IQUANT	1	Control Mode
ELECTROMETER	IQUANT	0	RE=0 or CS=1
IESTAB	IQUANT	0	I/E Stability
CASPEED	IQUANT	3	Control Amp Speed
CONVENTION	IQUANT	1	Current Convention
ICHRANGE	IQUANT	2	Ich Range
ICHRANGEMODE	TOGGLE	F	Ich Auto Range
ICHOFFSETENABLE	TOGGLE	T	Ich Offset Enable
ICHOFFSET	QUANT	0	Ich Offset (V)
ICHFILTER	IQUANT	3	Ich Filter
VCHRANGE	IQUANT	2	Vch Range
VCHRANGEMODE	TOGGLE	F	Vch Auto Range
VCHOFFSETENABLE	TOGGLE	T	Vch Offset Enable
VCHOFFSET	QUANT	0	Vch Offset (V)
VCHFILTER	IQUANT	3	Vch Filter
ACHRANGE	IQUANT	2	Ach Range
ACHOFFSETENABLE	TOGGLE	F	Ach Offset Enable
ACHOFFSET	QUANT	0	Ach Offset (V)
ACHFILTER	IQUANT	1	Ach Filter
IERANGELOWERLIMIT	IQUANT	13	I/E Range Lower Limit
IERANGEMODE	TOGGLE	F	I/E AutoRange
IERANGE	IQUANT	13	I/E Range
POSFEEDENABLE	TOGGLE	F	Positive Feedback IR Comp
POSFEEDRESISTANCE	QUANT	0	Positive Feedback Resistance (ohm)
ACHSELECT	IQUANT	4	Ach Select
SENSECABLEID	IQUANT	14	Sense Cable ID
PWRCABLEID	IQUANT	8	Power Cable ID
DCCALDATE	LABEL	10/1/2025	DC Calibration Date
ACCALDATE	LABEL	10/1/2025	AC Calibration Date
THERMOSELECT	IQUANT	1	Thermo Select
FRAMEWORKVERSION	LABEL	7.10.1	Framework Version
INSTRUMENTVERSION	LABEL	4.80	Instrument Version
COMMVERSION	LABEL	5.10	Communications Version
CPUPLDVERSION	LABEL	6.00	CPU PLD Version
CTRLPLDVERSION	LABEL	3.21	CTRL PLD Version
PSTATPLDVERSION	LABEL	0.00	PSTAT PLD Version
BOOSTERDCCALDATE	LABEL	10/1/2025	Booster DC Calibration Date
ZCURVE	TABLE
	Pt	Time	Freq	Zreal	Zimag	Zsig	Zmod	Zphz	Idc	Vdc	IERange	Imod	Vmod	Temp
	#	s	Hz	ohm	ohm	V	ohm	°	A	V	#	A	V	°C
	0	5	100078,1	0,0305155	0,0029851	1	0,0306611	5,587113	16,60096	2,283584	13	0,1628908	0,0049733	70,36082
	1	8	79453,13	0,0304854	0,0021688	1	0,0305624	4,069255	16,14934	2,28356	13	0,1658316	0,0050515	70,37686
	2	10	63140,62	0,0304188	0,0013949	1	0,0304508	2,625506	16,02939	2,283577	13	0,1643066	0,0049896	70,38597
	3	13	50203,12	0,0304918	0,0007842	1	0,0305019	1,473273	15,87035	2,283571	13	0,1986696	0,0060463	70,40012
	4	15	39890,62	0,0308312	0,0002855	1	0,0308325	0,5305138	14,8823	2,283619	13	0,1614838	0,0049704	70,39853
	5	17	31640,63	0,0307903	-0,0002264	1	0,0307911	-0,4212182	14,86441	2,28361	13	0,181373	0,0055777	70,40257
	6	20	25171,88	0,0309193	-0,0005503	1	0,0309242	-1,01972	14,74265	2,283614	13	0,1737109	0,0053671	70,39526
	7	21	20015,62	0,0310404	-0,0009519	1	0,031055	-1,756431	14,3995	2,283637	13	0,1684569	0,0052283	70,39115
	8	23	15890,62	0,0312489	-0,0011936	1	0,0312717	-2,187417	14,39467	2,283652	13	0,1647674	0,0051505	70,40668
	9	25	12609,38	0,0314326	-0,0014409	1	0,0314656	-2,62473	14,49777	2,283632	13	0,1618022	0,0050899	70,39216
	10	26	10078,13	0,0316371	-0,0016895	1	0,0316822	-3,056876	14,51931	2,283614	13	0,1594013	0,0050493	70,38878
	11	28	8015,625	0,0318595	-0,0019382	1	0,0319184	-3,48136	14,32631	2,28364	13	0,1576995	0,005033	70,38064
	12	30	6328,125	0,0321023	-0,0021295	1	0,0321729	-3,795205	14,47002	2,283638	13	0,155939	0,0050167	70,38271
	13	31	5015,625	0,0323848	-0,0023557	1	0,0324704	-4,160487	14,47081	2,283615	13	0,1543598	0,0050119	70,39531
	14	33	3984,375	0,0327313	-0,0025264	1	0,0328286	-4,413718	14,39519	2,283651	13	0,1523356	0,0050008	70,36442
	15	35	3170,956	0,0330202	-0,0027491	1	0,0331344	-4,759133	14,34497	2,283644	13	0,1509058	0,0050001	70,38173
	16	37	2527,573	0,0333692	-0,0029298	1	0,0334976	-5,017603	14,34096	2,283633	13	0,149122	0,0049952	70,36563
	17	38	1976,103	0,0337441	-0,0031291	1	0,0338889	-5,297888	14,40062	2,283625	13	0,1474571	0,0049971	70,36249
	18	40	1577,524	0,0340904	-0,0033802	1	0,0342576	-5,662542	14,55224	2,283617	13	0,1460329	0,0050027	70,35913
	19	42	1265,625	0,034486	-0,0036379	1	0,0346773	-6,021753	14,57328	2,283622	13	0,143959	0,0049921	70,35706
	20	43	998,264	0,0348448	-0,0037196	1	0,0350428	-6,093073	14,83092	2,283611	13	0,1427259	0,0050015	70,35072
	21	45	796,875	0,0352492	-0,0040607	1	0,0354823	-6,571486	14,8335	2,283587	13	0,1407248	0,0049932	70,34073
	22	47	627,7902	0,035752	-0,004166	1	0,0359939	-6,646444	14,94528	2,283599	13	0,1388851	0,004999	70,33395
	23	48	505,5147	0,0361537	-0,0044577	1	0,0364275	-7,029049	15,02221	2,283612	13	0,1350789	0,0049586	70,33437
	24	50	397,9953	0,0367648	-0,004992	1	0,0371021	-7,732398	15,02353	2,283599	13	0,1352936	0,0050423	70,33945
	25	51	315,5048	0,0372923	-0,0053668	1	0,0376765	-8,189294	14,89972	2,283602	13	0,1325038	0,0050058	70,32647
	26	53	252,4038	0,0380329	-0,0057395	1	0,0384636	-8,581657	14,90246	2,283586	13	0,1297126	0,0049975	70,32364
	27	55	198,6229	0,0390394	-0,006175	1	0,0395247	-8,988274	14,9052	2,283574	13	0,1262389	0,0049946	70,32099
	28	56	158,3615	0,0394401	-0,0065342	1	0,0399777	-9,406979	14,85981	2,28358	13	0,1248521	0,0049945	70,32442
	29	58	125,558	0,0401345	-0,0069354	1	0,0407293	-9,80417	14,81563	2,283588	13	0,1226176	0,0049961	70,33854
	30	59	100,4464	0,0413259	-0,0076756	1	0,0420326	-10,52184	14,78505	2,283615	13	0,1187833	0,004994	70,33974
	31	61	79,00281	0,0419633	-0,0081107	1	0,0427399	-10,93934	14,86101	2,283596	13	0,1168456	0,0049947	70,33849
	32	62	63,3446	0,0430667	-0,0093431	1	0,0440685	-12,24037	14,83896	2,283619	13	0,1132824	0,0049927	70,34967
	33	64	50,22321	0,0445316	-0,0096137	1	0,0455575	-12,18231	14,79774	2,283615	13	0,1094176	0,0049851	70,34689
	34	66	38,42213	0,0473875	-0,0106005	1	0,0485587	-12,60933	14,8397	2,283605	13	0,1021276	0,0049594	70,35399
	35	67	31,25	0,0462239	-0,0095373	1	0,0471975	-11,65819	14,85749	2,28363	13	0,1043386	0,0049246	70,35513
	36	68	24,93351	0,0484479	-0,0110946	1	0,049702	-12,89832	14,75753	2,283609	13	0,0970235	0,0048223	70,36334
	37	70	19,86229	0,0501398	-0,0071044	1	0,0506407	-8,064696	14,74263	2,283599	13	0,1064382	0,0053902	70,34748
	38	72	15,625	0,049181	-0,0115628	1	0,050522	-13,23036	14,76086	2,283571	13	0,0989847	0,0050009	70,34566
	39	73	12,40079	0,0652419	-0,0123889	1	0,0664078	-10,75196	14,92992	2,283574	13	0,0752699	0,0049985	70,3388
	40	75	9,93114	0,0588536	-0,0118601	1	0,0600367	-11,39363	14,86287	2,283545	13	0,0832637	0,0049989	70,35668
	41	76	7,944915	0,0646046	-0,0181547	1	0,067107	-15,69604	14,80489	2,283597	13	0,074548	0,0050027	70,35598
	42	78	6,317385	0,0609297	-0,0142325	1	0,0625699	-13,14794	14,8073	2,283594	13	0,0799686	0,0050036	70,35892
	43	81	5,008013	0,0616223	-0,0072578	1	0,0620482	-6,717306	14,76949	2,283593	13	0,0805251	0,0049964	70,35774
	44	83	3,945707	0,0689705	-0,0076509	1	0,0693936	-6,329904	14,91102	2,283585	13	0,072052	0,0049999	70,37425
	45	88	3,158693	0,0616175	-0,0119352	1	0,0627628	-10,96233	14,86501	2,283575	13	0,0797118	0,0050029	70,38935
	46	92	2,504006	0,0630245	-0,0086203	1	0,0636113	-7,788453	14,71006	2,28359	13	0,0760963	0,0048472	70,42287
	47	95	1,998082	0,0792479	-0,0095069	1	0,0798161	-6,840712	14,68557	2,28359	13	0,0636551	0,0050853	70,47308
	48	101	1,584686	0,0734117	-0,0134188	1	0,074628	-10,35863	14,64245	2,283598	13	0,0674138	0,0050339	70,48373
	49	108	1,266892	0,0866902	-0,003522	1	0,0867617	-2,326517	14,63965	2,283594	13	0,0578016	0,0050168	70,47832
	50	115	0,999041	0,0998436	0,0020806	1	0,0998653	1,193796	14,65239	2,283589	13	0,0502033	0,0050147	70,46734
	51	122	0,7923428	0,0657911	-0,002036	1	0,0658226	-1,772565	14,89607	2,283584	13	0,0758785	0,0049953	70,43823
	52	134	0,6334459	0,0701545	-0,0188548	1	0,072644	-15,04342	14,85682	2,283585	13	0,0689743	0,005011	70,43777
	53	143	0,5040323	0,0644505	-0,0008738	1	0,0644565	-0,7767199	15,0217	2,283591	13	0,0775267	0,0049974	70,40955
	54	159	0,400641	0,0764057	0,0008964	1	0,076411	0,6721869	14,93251	2,283592	13	0,0653627	0,0049946	70,41251
	55	173	0,316723	0,0679784	0,0107695	1	0,0688262	9,00232	14,64111	2,283608	13	0,0726291	0,0049989	70,47268
	56	206	0,2520161	0,0650079	-0,0127342	1	0,0662434	-11,08318	14,55923	2,283607	13	0,0755564	0,0050052	70,56574
	57	227	0,2003205	0,0774687	-0,0207283	1	0,0801939	-14,97972	14,59844	2,283612	13	0,0622946	0,0049957	70,55524
	58	254	0,1588983	0,1188754	-0,0214609	1	0,1207971	-10,23353	14,86467	2,283605	13	0,0414268	0,0050043	70,49601
	59	308	0,1260081	0,0496541	-0,0275066	1	0,056764	-28,98492	15,34594	2,283595	13	0,088121	0,0050021	70,46897
	60	389	0,1001603	0,0436607	-0,0012886	1	0,0436797	-1,690489	15,19345	2,283602	13	0,1143582	0,0049951	70,30549
