EXPLAIN
TAG	EISPOT
TITLE	LABEL	Potentiostatic EIS	Test Identifier
DATE	LABEL	18/3/2026	Date
TIME	LABEL	18:56:54	Time
NOTES	NOTES	1	Notes...
	
PSTAT	PSTAT	REF3000-46189	Potentiostat
VDC	POTEN	1,84771E+000	F	Last Measured Potential (V)
FREQINIT	QUANT	1,00000E+005	Initial Freq. (Hz)
FREQFINAL	QUANT	1,00000E-001	Final Freq. (Hz)
PTSPERDEC	QUANT	1,00000E+001	Points/decade
VAC	QUANT	5,00000E+000	AC Voltage (mV rms)
AREA	QUANT	2,50000E+001	Sample Area (cm^2)
SPEED	SELECTOR	1	Optimize for:
DRIFTCOR	SELECTOR	0	Drift Correction
THD	SELECTOR	0	THD
ZGUESS	QUANT	2,00000E-002	Estimated Z (ohms)
EOC	QUANT	0,3170002	Open Circuit (V)
SEQUENCER	TOGGLE	TRUE	Run as Sequence
PSTATMODEL	IQUANT	6	Pstat Model
PSTATSECTION	LABEL	REF30K-46189	Pstat Section
PSTATSERIALNO	LABEL	46189	Pstat Serial Number
CTRLMODE	IQUANT	1	Control Mode
ELECTROMETER	IQUANT	0	RE=0 or CS=1
IESTAB	IQUANT	0	I/E Stability
CASPEED	IQUANT	3	Control Amp Speed
CONVENTION	IQUANT	1	Current Convention
ICHRANGE	IQUANT	2	Ich Range
ICHRANGEMODE	TOGGLE	F	Ich Auto Range
ICHOFFSETENABLE	TOGGLE	T	Ich Offset Enable
ICHOFFSET	QUANT	0	Ich Offset (V)
ICHFILTER	IQUANT	3	Ich Filter
VCHRANGE	IQUANT	2	Vch Range
VCHRANGEMODE	TOGGLE	F	Vch Auto Range
VCHOFFSETENABLE	TOGGLE	T	Vch Offset Enable
VCHOFFSET	QUANT	0	Vch Offset (V)
VCHFILTER	IQUANT	3	Vch Filter
ACHRANGE	IQUANT	2	Ach Range
ACHOFFSETENABLE	TOGGLE	F	Ach Offset Enable
ACHOFFSET	QUANT	0	Ach Offset (V)
ACHFILTER	IQUANT	1	Ach Filter
IERANGELOWERLIMIT	IQUANT	13	I/E Range Lower Limit
IERANGEMODE	TOGGLE	F	I/E AutoRange
IERANGE	IQUANT	13	I/E Range
POSFEEDENABLE	TOGGLE	F	Positive Feedback IR Comp
POSFEEDRESISTANCE	QUANT	0	Positive Feedback Resistance (ohm)
ACHSELECT	IQUANT	4	Ach Select
SENSECABLEID	IQUANT	14	Sense Cable ID
PWRCABLEID	IQUANT	8	Power Cable ID
DCCALDATE	LABEL	10/1/2025	DC Calibration Date
ACCALDATE	LABEL	10/1/2025	AC Calibration Date
THERMOSELECT	IQUANT	1	Thermo Select
FRAMEWORKVERSION	LABEL	7.10.1	Framework Version
INSTRUMENTVERSION	LABEL	4.80	Instrument Version
COMMVERSION	LABEL	5.10	Communications Version
CPUPLDVERSION	LABEL	6.00	CPU PLD Version
CTRLPLDVERSION	LABEL	3.21	CTRL PLD Version
PSTATPLDVERSION	LABEL	0.00	PSTAT PLD Version
BOOSTERDCCALDATE	LABEL	10/1/2025	Booster DC Calibration Date
ZCURVE	TABLE
	Pt	Time	Freq	Zreal	Zimag	Zsig	Zmod	Zphz	Idc	Vdc	IERange	Imod	Vmod	Temp
	#	s	Hz	ohm	ohm	V	ohm	°	A	V	#	A	V	°C
	0	4	100078,1	0,0112478	0,0044765	1	0,0121059	21,70184	1,377663	1,845177	13	0,4142678	0,0049938	61,86882
	1	5	79453,13	0,0111119	0,0036435	1	0,011694	18,15405	1,377395	1,845183	13	0,5812355	0,0067746	61,88287
	2	7	63140,62	0,0109971	0,0029631	1	0,0113893	15,07968	1,376205	1,845177	13	0,5857508	0,006653	61,89938
	3	10	50203,12	0,0109019	0,0024087	1	0,0111648	12,45888	1,375801	1,845173	13	0,580302	0,0064645	61,90334
	4	12	39890,62	0,0108238	0,0019459	1	0,0109973	10,19192	1,37583	1,845171	13	0,5740424	0,0063021	61,92978
	5	15	31640,63	0,0107639	0,0015627	1	0,0108767	8,260511	1,376585	1,84518	13	0,5636188	0,0061226	61,92724
	6	17	25171,88	0,0107199	0,0012493	1	0,0107924	6,64744	1,375467	1,845179	13	0,5488679	0,0059184	61,9542
	7	19	20015,62	0,0106847	0,0009927	1	0,0107308	5,307826	1,374273	1,84515	13	0,5362184	0,0057506	61,96126
	8	20	15890,62	0,0106589	0,0007759	1	0,0106871	4,163157	1,374545	1,845174	13	0,5203959	0,0055593	61,94473
	9	22	12609,38	0,0106434	0,0005967	1	0,0106601	3,208767	1,374588	1,845187	13	0,5072224	0,0054057	61,95928
	10	24	10078,13	0,0106325	0,0004493	1	0,010642	2,41949	1,373537	1,845163	13	0,4957539	0,0052749	61,97202
	11	26	8015,625	0,0106301	0,0003228	1	0,010635	1,739132	1,373271	1,84517	13	0,4884138	0,0051937	61,97903
	12	27	6328,125	0,0106299	0,0002052	1	0,0106318	1,106007	1,374307	1,845202	13	0,4832749	0,0051378	61,97408
	13	29	5015,625	0,0106354	0,0001092	1	0,0106359	0,58811	1,373635	1,845182	13	0,478329	0,0050873	61,97339
	14	30	3984,375	0,0106442	1,531253E-005	1	0,0106442	0,0824246	1,37315	1,845165	13	0,4747131	0,0050528	61,97128
	15	32	3170,956	0,01066	-6,776421E-005	1	0,0106602	-0,3642176	1,372816	1,845192	13	0,472585	0,0050378	61,99825
	16	34	2527,573	0,0106802	-0,0001485	1	0,0106812	-0,7966908	1,37233	1,845155	13	0,4697441	0,0050174	61,98632
	17	35	1976,103	0,0107064	-0,000239	1	0,010709	-1,278873	1,372319	1,845172	13	0,4680468	0,0050123	62,00172
	18	37	1577,524	0,0107336	-0,0003191	1	0,0107384	-1,703027	1,372221	1,845176	13	0,4663139	0,0050074	62,00123
	19	39	1265,625	0,0107651	-0,0004075	1	0,0107728	-2,167752	1,372381	1,845173	13	0,4645379	0,0050044	62,01445
	20	40	998,264	0,0108065	-0,0005077	1	0,0108184	-2,689878	1,372038	1,845154	13	0,4624717	0,0050032	62,02475
	21	42	796,875	0,0108484	-0,0006126	1	0,0108657	-3,231968	1,370855	1,845165	13	0,4602578	0,005001	62,027
	22	43	627,7902	0,0108921	-0,0007496	1	0,0109179	-3,93664	1,372742	1,845168	13	0,4578921	0,0049992	62,02048
	23	45	505,5147	0,0109371	-0,0008948	1	0,0109737	-4,677266	1,373916	1,845188	13	0,4486086	0,0049609	62,05339
	24	46	397,9953	0,0109977	-0,001087	1	0,0110513	-5,644762	1,373013	1,845169	13	0,4544259	0,0050446	62,0468
	25	48	315,5048	0,011061	-0,001315	1	0,0111389	-6,779907	1,371882	1,845172	13	0,4484105	0,0050083	62,04196
	26	49	252,4038	0,0111339	-0,0015835	1	0,011246	-8,094429	1,372045	1,845176	13	0,443627	0,0049973	62,06215
	27	51	198,6229	0,0112323	-0,0019386	1	0,0113984	-9,79247	1,372915	1,845189	13	0,4378075	0,0049953	62,06473
	28	52	158,3615	0,0113519	-0,0023533	1	0,0115933	-11,71188	1,372222	1,845171	13	0,4305362	0,0049945	62,06205
	29	54	125,558	0,0115154	-0,0028729	1	0,0118684	-14,00823	1,371779	1,845174	13	0,4208624	0,0049969	62,05618
	30	56	100,4464	0,0117286	-0,0034776	1	0,0122333	-16,51561	1,372288	1,84517	13	0,408454	0,004998	62,06598
	31	57	79,00281	0,0120409	-0,0042635	1	0,0127735	-19,49835	1,37102	1,845154	13	0,3909787	0,0049949	62,06096
	32	59	63,3446	0,0124395	-0,0051262	1	0,0134543	-22,39603	1,371486	1,845188	13	0,3710618	0,0049929	62,06046
	33	61	50,22321	0,0130149	-0,006191	1	0,0144124	-25,43985	1,372334	1,845171	13	0,3460535	0,0049878	62,05822
	34	62	38,42213	0,0139701	-0,0076021	1	0,0159046	-28,5537	1,371836	1,845171	13	0,312244	0,0049663	62,06399
	35	64	31,25	0,0149775	-0,0088215	1	0,0173823	-30,49739	1,371549	1,845178	13	0,2838592	0,0049342	62,06301
	36	65	24,93351	0,0164291	-0,0101981	1	0,019337	-31,82928	1,371531	1,845165	13	0,2504858	0,0048437	62,05606
	37	67	19,86229	0,0183108	-0,0115489	1	0,0216486	-32,24022	1,371784	1,845138	13	0,246882	0,0053447	62,05608
	38	68	15,625	0,0207643	-0,0127501	1	0,0243664	-31,55153	1,370935	1,845159	13	0,2053114	0,0050027	62,03727
	39	70	12,40079	0,0234519	-0,013548	1	0,0270839	-30,01468	1,370379	1,845152	13	0,1844931	0,0049968	62,05357
	40	71	9,93114	0,0263527	-0,0138615	1	0,0297759	-27,74428	1,37038	1,84515	13	0,1678531	0,004998	62,04351
	41	73	7,944915	0,02919	-0,0135404	1	0,0321776	-24,88525	1,369306	1,845139	13	0,155579	0,0050062	62,05181
	42	75	6,317385	0,0319076	-0,0128114	1	0,0343835	-21,87626	1,369588	1,84515	13	0,1451906	0,0049922	62,04269
	43	77	5,008013	0,0342642	-0,0118256	1	0,0362475	-19,04107	1,36886	1,845156	13	0,1379475	0,0050003	62,02485
	44	80	3,945707	0,0362732	-0,0101942	1	0,0376785	-15,69749	1,367841	1,845162	13	0,1328396	0,0050052	62,00866
	45	83	3,158693	0,0377389	-0,008866	1	0,0387664	-13,22074	1,367011	1,845151	13	0,1289952	0,0050007	61,9993
	46	86	2,504006	0,0388315	-0,0074882	1	0,0395469	-10,91486	1,365794	1,845157	13	0,1223099	0,0048436	61,9821
	47	91	1,998082	0,0396783	-0,0062955	1	0,0401747	-9,015569	1,364619	1,845148	13	0,1264659	0,0050853	61,93907
	48	95	1,584686	0,040309	-0,0052383	1	0,040648	-7,404318	1,363373	1,845154	13	0,1240073	0,0050436	61,93267
	49	100	1,266892	0,0407601	-0,0042968	1	0,0409859	-6,017694	1,362686	1,845166	13	0,1222684	0,0050132	61,9228
	50	106	0,999041	0,0410693	-0,0035066	1	0,0412188	-4,8802	1,361758	1,845154	13	0,1213484	0,005003	61,90927
	51	112	0,7923428	0,0413558	-0,0029301	1	0,0414595	-4,052757	1,359998	1,845154	13	0,1209643	0,0050159	61,91376
	52	119	0,6334459	0,0415093	-0,0023756	1	0,0415772	-3,275565	1,359743	1,845154	13	0,1199235	0,0049866	61,90392
	53	127	0,5040323	0,0415746	-0,0018256	1	0,0416146	-2,51437	1,358612	1,845153	13	0,1203602	0,005009	61,92942
	54	138	0,400641	0,0416432	-0,0015893	1	0,0416735	-2,185575	1,359485	1,845158	13	0,1199325	0,0049982	61,95262
	55	152	0,316723	0,0416699	-0,0012761	1	0,0416894	-1,754028	1,360843	1,845159	13	0,1199032	0,0049988	61,95667
	56	170	0,2520161	0,041809	-0,0010781	1	0,0418229	-1,477168	1,353443	1,84516	13	0,1195913	0,0050017	61,88906
	57	191	0,2003205	0,0418967	-0,0008758	1	0,0419059	-1,197474	1,353348	1,845162	13	0,1193456	0,0050013	61,89378
	58	213	0,1588983	0,0420326	-0,0007805	1	0,0420398	-1,063767	1,346238	1,845159	13	0,1189624	0,0050012	61,81237
	59	244	0,1260081	0,0421653	-0,0006336	1	0,04217	-0,8609122	1,343903	1,845159	13	0,1186578	0,0050038	61,75333
	60	283	0,1001603	0,0421368	-0,0004859	1	0,0421396	-0,6607172	1,330759	1,845157	13	0,1186179	0,0049985	61,45769
