EXPLAIN
TAG	EISPOT
TITLE	LABEL	Potentiostatic EIS	Test Identifier
DATE	LABEL	3/4/2026	Date
TIME	LABEL	3:51:35	Time
NOTES	NOTES	1	Notes...
	
PSTAT	PSTAT	REF3000-46189	Potentiostat
VDC	POTEN	2,74785E+000	F	Last Measured Potential (V)
FREQINIT	QUANT	1,00000E+005	Initial Freq. (Hz)
FREQFINAL	QUANT	1,00000E-001	Final Freq. (Hz)
PTSPERDEC	QUANT	1,00000E+001	Points/decade
VAC	QUANT	5,00000E+000	AC Voltage (mV rms)
AREA	QUANT	2,50000E+001	Sample Area (cm^2)
SPEED	SELECTOR	1	Optimize for:
DRIFTCOR	SELECTOR	0	Drift Correction
THD	SELECTOR	0	THD
ZGUESS	QUANT	2,00000E-002	Estimated Z (ohms)
EOC	QUANT	0,0049827	Open Circuit (V)
SEQUENCER	TOGGLE	TRUE	Run as Sequence
PSTATMODEL	IQUANT	6	Pstat Model
PSTATSECTION	LABEL	REF30K-46189	Pstat Section
PSTATSERIALNO	LABEL	46189	Pstat Serial Number
CTRLMODE	IQUANT	1	Control Mode
ELECTROMETER	IQUANT	0	RE=0 or CS=1
IESTAB	IQUANT	0	I/E Stability
CASPEED	IQUANT	3	Control Amp Speed
CONVENTION	IQUANT	1	Current Convention
ICHRANGE	IQUANT	2	Ich Range
ICHRANGEMODE	TOGGLE	F	Ich Auto Range
ICHOFFSETENABLE	TOGGLE	T	Ich Offset Enable
ICHOFFSET	QUANT	0	Ich Offset (V)
ICHFILTER	IQUANT	3	Ich Filter
VCHRANGE	IQUANT	2	Vch Range
VCHRANGEMODE	TOGGLE	F	Vch Auto Range
VCHOFFSETENABLE	TOGGLE	T	Vch Offset Enable
VCHOFFSET	QUANT	0	Vch Offset (V)
VCHFILTER	IQUANT	3	Vch Filter
ACHRANGE	IQUANT	2	Ach Range
ACHOFFSETENABLE	TOGGLE	F	Ach Offset Enable
ACHOFFSET	QUANT	0	Ach Offset (V)
ACHFILTER	IQUANT	1	Ach Filter
IERANGELOWERLIMIT	IQUANT	13	I/E Range Lower Limit
IERANGEMODE	TOGGLE	F	I/E AutoRange
IERANGE	IQUANT	13	I/E Range
POSFEEDENABLE	TOGGLE	F	Positive Feedback IR Comp
POSFEEDRESISTANCE	QUANT	0	Positive Feedback Resistance (ohm)
ACHSELECT	IQUANT	4	Ach Select
SENSECABLEID	IQUANT	14	Sense Cable ID
PWRCABLEID	IQUANT	8	Power Cable ID
DCCALDATE	LABEL	10/1/2025	DC Calibration Date
ACCALDATE	LABEL	10/1/2025	AC Calibration Date
THERMOSELECT	IQUANT	1	Thermo Select
FRAMEWORKVERSION	LABEL	7.10.1	Framework Version
INSTRUMENTVERSION	LABEL	4.80	Instrument Version
COMMVERSION	LABEL	5.10	Communications Version
CPUPLDVERSION	LABEL	6.00	CPU PLD Version
CTRLPLDVERSION	LABEL	3.21	CTRL PLD Version
PSTATPLDVERSION	LABEL	0.00	PSTAT PLD Version
BOOSTERDCCALDATE	LABEL	10/1/2025	Booster DC Calibration Date
ZCURVE	TABLE
	Pt	Time	Freq	Zreal	Zimag	Zsig	Zmod	Zphz	Idc	Vdc	IERange	Imod	Vmod	Temp
	#	s	Hz	ohm	ohm	V	ohm	°	A	V	#	A	V	°C
	0	5	100078,1	0,0157135	0,0034459	1	0,0160869	12,36906	17,79862	2,743382	13	0,3115937	0,0049913	71,98096
	1	7	79453,13	0,0156656	0,0025853	1	0,0158775	9,370947	17,65818	2,743388	13	0,4326856	0,0068473	71,9834
	2	9	63140,62	0,0156606	0,0018748	1	0,0157724	6,826539	17,62678	2,743379	13	0,4225347	0,0066462	71,98803
	3	10	50203,12	0,0156897	0,0012895	1	0,0157426	4,698367	17,64845	2,743363	13	0,4076933	0,0064039	71,97363
	4	12	39890,62	0,0157533	0,0007961	1	0,0157734	2,892982	17,71046	2,74339	13	0,4034287	0,0063525	71,95798
	5	13	31640,63	0,0158661	0,0003734	1	0,0158705	1,34812	17,73271	2,743383	13	0,3864339	0,0061252	71,95334
	6	16	25171,88	0,0159979	1,997014E-005	1	0,0159979	0,071522	17,73091	2,743381	13	0,3690682	0,0058991	71,9426
	7	18	20015,62	0,0161603	-0,0002478	1	0,0161622	-0,8786317	17,70889	2,743359	13	0,3531376	0,0057041	71,93932
	8	19	15890,62	0,0163345	-0,000496	1	0,0163421	-1,739337	17,73965	2,743342	13	0,3371056	0,0055068	71,94115
	9	21	12609,38	0,0165075	-0,0006821	1	0,0165216	-2,366133	17,75882	2,743395	13	0,3228456	0,0053326	71,93404
	10	23	10078,13	0,0166986	-0,0008423	1	0,0167199	-2,887565	17,74158	2,743382	13	0,311615	0,0052093	71,93394
	11	24	8015,625	0,0168657	-0,0009957	1	0,0168951	-3,37853	17,76391	2,743377	13	0,3040083	0,0051357	71,94878
	12	26	6328,125	0,017037	-0,0011745	1	0,0170774	-3,94378	17,73497	2,743385	13	0,2979201	0,0050874	71,93851
	13	27	5015,625	0,0172794	-0,0012372	1	0,0173236	-4,095324	17,81352	2,743365	13	0,2916281	0,0050518	71,93243
	14	29	3984,375	0,0174481	-0,0013253	1	0,0174984	-4,343568	17,85107	2,743384	13	0,2873303	0,0050277	71,95277
	15	31	3170,956	0,01765	-0,0014397	1	0,0177087	-4,663139	17,80007	2,743375	13	0,2830685	0,0050127	71,94267
	16	32	2527,573	0,0178605	-0,0015495	1	0,0179276	-4,958266	17,8244	2,743371	13	0,2789899	0,0050016	71,9485
	17	34	1976,103	0,0180924	-0,0016774	1	0,01817	-5,296831	17,89833	2,743375	13	0,2752365	0,005001	71,94955
	18	36	1577,524	0,0183241	-0,0017984	1	0,0184121	-5,605348	17,86722	2,743387	13	0,2712288	0,0049939	71,95864
	19	38	1265,625	0,0185711	-0,0019264	1	0,0186707	-5,922214	17,8662	2,743353	13	0,2679249	0,0050023	71,95554
	20	39	998,264	0,0188475	-0,0020581	1	0,0189595	-6,231957	17,87101	2,743375	13	0,2632245	0,0049906	71,95221
	21	41	796,875	0,0191669	-0,0022229	1	0,0192954	-6,615448	17,82408	2,743358	13	0,2587814	0,0049933	71,94828
	22	42	627,7902	0,0195279	-0,002331	1	0,0196665	-6,807189	17,85687	2,74336	13	0,2542767	0,0050007	71,94861
	23	44	505,5147	0,0198911	-0,0025118	1	0,020049	-7,197095	17,89792	2,74334	13	0,2452884	0,0049558	71,93659
	24	45	397,9953	0,0202814	-0,0026187	1	0,0204497	-7,357189	17,86644	2,74335	13	0,2452841	0,0050386	71,93559
	25	47	315,5048	0,0206769	-0,0027326	1	0,0208567	-7,528462	17,86111	2,743395	13	0,2393589	0,0050057	71,94003
	26	48	252,4038	0,0210608	-0,0028465	1	0,0212523	-7,697117	17,81215	2,743377	13	0,2347053	0,0049964	71,93768
	27	50	198,6229	0,0215977	-0,0028853	1	0,0217895	-7,609193	17,87379	2,743365	13	0,2290008	0,0049949	71,9407
	28	51	158,3615	0,0220226	-0,0030368	1	0,022231	-7,851147	17,87315	2,743337	13	0,2245009	0,004994	71,94494
	29	53	125,558	0,022403	-0,0030668	1	0,0226119	-7,794938	17,97634	2,743371	13	0,2208234	0,0049952	71,94101
	30	54	100,4464	0,0228281	-0,0031879	1	0,0230496	-7,949844	17,99495	2,74336	13	0,2167494	0,0049972	71,95657
	31	56	79,00281	0,0236806	-0,0030434	1	0,0238753	-7,323508	17,97551	2,743363	13	0,2091384	0,004994	71,9621
	32	58	63,3446	0,023765	-0,0033436	1	0,023999	-8,008562	18,01953	2,743357	13	0,2080282	0,004993	71,97551
	33	59	50,22321	0,0241544	-0,0033251	1	0,0243822	-7,838119	18,02581	2,743312	13	0,2044721	0,0049858	71,98034
	34	61	38,42213	0,0249114	-0,0033139	1	0,0251309	-7,577501	18,02821	2,743345	13	0,1973552	0,0049599	71,98103
	35	63	31,25	0,025076	-0,0034561	1	0,025313	-7,847355	18,00612	2,743352	13	0,1946903	0,0049283	71,99687
	36	65	24,93351	0,0254773	-0,0032261	1	0,0256807	-7,216862	17,98499	2,743388	13	0,1880688	0,0048298	72,01231
	37	67	19,86229	0,026567	-0,0036137	1	0,0268117	-7,745957	18,05547	2,74333	13	0,2004801	0,0053753	72,0173
	38	69	15,625	0,0265011	-0,0032403	1	0,0266985	-6,970945	18,04508	2,74334	13	0,1874902	0,0050057	72,02155
	39	70	12,40079	0,02726	-0,0031946	1	0,0274466	-6,683974	18,09266	2,743362	13	0,1820184	0,0049958	72,0337
	40	72	9,93114	0,0276136	-0,002979	1	0,0277738	-6,15743	18,10491	2,743348	13	0,1798763	0,0049959	72,04156
	41	74	7,944915	0,0283382	-0,0027381	1	0,0284702	-5,518915	18,11843	2,743329	13	0,1758718	0,0050071	72,04878
	42	76	6,317385	0,0279039	-0,002864	1	0,0280505	-5,860223	18,19117	2,743336	13	0,1782812	0,0050009	72,05324
	43	79	5,008013	0,0299184	-0,0028812	1	0,0300568	-5,500792	18,15586	2,743353	13	0,1662138	0,0049959	72,04984
	44	82	3,945707	0,0286471	-0,0030889	1	0,0288131	-6,154156	18,16166	2,743339	13	0,1735568	0,0050007	72,05286
	45	86	3,158693	0,0289553	-0,0036316	1	0,0291822	-7,14884	18,20538	2,743334	13	0,1713132	0,0049993	72,05324
	46	91	2,504006	0,0309239	-0,003719	1	0,0311467	-6,857637	18,23295	2,743335	13	0,155084	0,0048369	72,04314
	47	95	1,998082	0,030231	-0,0043548	1	0,030543	-8,197058	18,27697	2,743323	13	0,1666562	0,0050948	72,03251
	48	100	1,584686	0,0290479	-0,0041966	1	0,0293495	-8,220764	18,28601	2,74333	13	0,1716145	0,0050397	72,00111
	49	105	1,266892	0,0328822	-0,0062891	1	0,0334782	-10,82779	18,32944	2,743327	13	0,1495462	0,0050084	72,01773
	50	110	0,999041	0,0327366	-0,0059624	1	0,0332751	-10,32223	18,35566	2,743323	13	0,1506672	0,0050146	72,04342
	51	117	0,7923428	0,0331261	-0,0052827	1	0,0335446	-9,060815	18,393	2,743324	13	0,1491518	0,005004	72,08759
	52	125	0,6334459	0,0328317	-0,0069185	1	0,0335528	-11,89968	18,38842	2,743325	13	0,1490063	0,005	72,17873
	53	134	0,5040323	0,0313995	-0,0048825	1	0,0317768	-8,838555	18,42137	2,743331	13	0,1573004	0,0049988	72,22297
	54	146	0,400641	0,0339646	-0,0067024	1	0,0346196	-11,16301	18,53205	2,743331	13	0,1445377	0,005004	72,23473
	55	173	0,316723	0,0351393	-0,0074925	1	0,0359292	-12,03655	18,66347	2,743324	13	0,1391445	0,0049995	72,30035
	56	203	0,2520161	0,0378006	-0,0079422	1	0,0386259	-11,86577	18,88846	2,743311	13	0,1295376	0,0050036	72,33932
	57	236	0,2003205	0,036054	-0,0079964	1	0,0369301	-12,50512	19,12119	2,743302	13	0,1353005	0,0049967	72,27989
	58	278	0,1588983	0,037668	-0,0098556	1	0,038936	-14,66242	19,28054	2,743304	13	0,1283706	0,0049983	72,33124
	59	321	0,1260081	0,0398895	-0,0202022	1	0,0447135	-26,86015	19,58666	2,743291	13	0,1119466	0,0050055	72,39114
	60	372	0,1001603	0,0362768	-0,0062059	1	0,0368038	-9,70766	19,77514	2,743275	13	0,1357102	0,0049947	72,39794
