EXPLAIN
TAG	EISPOT
TITLE	LABEL	Potentiostatic EIS	Test Identifier
DATE	LABEL	10/3/2026	Date
TIME	LABEL	16:43:31	Time
NOTES	NOTES	1	Notes...
	
PSTAT	PSTAT	REF3000-46189	Potentiostat
VDC	POTEN	5,17995E+000	F	Last Measured Potential (V)
FREQINIT	QUANT	1,00000E+005	Initial Freq. (Hz)
FREQFINAL	QUANT	1,00000E-001	Final Freq. (Hz)
PTSPERDEC	QUANT	1,00000E+001	Points/decade
VAC	QUANT	5,00000E+000	AC Voltage (mV rms)
AREA	QUANT	2,50000E+001	Sample Area (cm^2)
SPEED	SELECTOR	1	Optimize for:
DRIFTCOR	SELECTOR	0	Drift Correction
THD	SELECTOR	0	THD
ZGUESS	QUANT	2,00000E-002	Estimated Z (ohms)
EOC	QUANT	0,3141339	Open Circuit (V)
SEQUENCER	TOGGLE	TRUE	Run as Sequence
PSTATMODEL	IQUANT	6	Pstat Model
PSTATSECTION	LABEL	REF30K-46189	Pstat Section
PSTATSERIALNO	LABEL	46189	Pstat Serial Number
CTRLMODE	IQUANT	1	Control Mode
ELECTROMETER	IQUANT	0	RE=0 or CS=1
IESTAB	IQUANT	0	I/E Stability
CASPEED	IQUANT	3	Control Amp Speed
CONVENTION	IQUANT	1	Current Convention
ICHRANGE	IQUANT	2	Ich Range
ICHRANGEMODE	TOGGLE	F	Ich Auto Range
ICHOFFSETENABLE	TOGGLE	T	Ich Offset Enable
ICHOFFSET	QUANT	0	Ich Offset (V)
ICHFILTER	IQUANT	3	Ich Filter
VCHRANGE	IQUANT	2	Vch Range
VCHRANGEMODE	TOGGLE	F	Vch Auto Range
VCHOFFSETENABLE	TOGGLE	T	Vch Offset Enable
VCHOFFSET	QUANT	0	Vch Offset (V)
VCHFILTER	IQUANT	3	Vch Filter
ACHRANGE	IQUANT	2	Ach Range
ACHOFFSETENABLE	TOGGLE	F	Ach Offset Enable
ACHOFFSET	QUANT	0	Ach Offset (V)
ACHFILTER	IQUANT	1	Ach Filter
IERANGELOWERLIMIT	IQUANT	13	I/E Range Lower Limit
IERANGEMODE	TOGGLE	F	I/E AutoRange
IERANGE	IQUANT	13	I/E Range
POSFEEDENABLE	TOGGLE	F	Positive Feedback IR Comp
POSFEEDRESISTANCE	QUANT	0	Positive Feedback Resistance (ohm)
ACHSELECT	IQUANT	4	Ach Select
SENSECABLEID	IQUANT	14	Sense Cable ID
PWRCABLEID	IQUANT	8	Power Cable ID
DCCALDATE	LABEL	10/1/2025	DC Calibration Date
ACCALDATE	LABEL	10/1/2025	AC Calibration Date
THERMOSELECT	IQUANT	1	Thermo Select
FRAMEWORKVERSION	LABEL	7.10.1	Framework Version
INSTRUMENTVERSION	LABEL	4.80	Instrument Version
COMMVERSION	LABEL	5.10	Communications Version
CPUPLDVERSION	LABEL	6.00	CPU PLD Version
CTRLPLDVERSION	LABEL	3.21	CTRL PLD Version
PSTATPLDVERSION	LABEL	0.00	PSTAT PLD Version
BOOSTERDCCALDATE	LABEL	10/1/2025	Booster DC Calibration Date
ZCURVE	TABLE
	Pt	Time	Freq	Zreal	Zimag	Zsig	Zmod	Zphz	Idc	Vdc	IERange	Imod	Vmod	Temp
	#	s	Hz	ohm	ohm	V	ohm	°	A	V	#	A	V	°C
	0	4	100078,1	0,0195293	0,0187958	1	0,0271049	43,9036	14,61043	5,173608	13	0,185329	0,0050003	22,56715
	1	6	79453,13	0,0194334	0,014836	1	0,0244492	37,35902	14,60483	5,173609	13	0,2535387	0,0061784	22,5677
	2	8	63140,62	0,0193768	0,0116828	1	0,0226263	31,0869	14,60184	5,173613	13	0,2702887	0,0060989	22,57884
	3	10	50203,12	0,0193778	0,0091696	1	0,0214379	25,32363	14,60075	5,173602	13	0,2808856	0,0060082	22,58218
	4	11	39890,62	0,019409	0,0071526	1	0,020685	20,22992	14,59858	5,17356	13	0,2923021	0,0060359	22,58758
	5	13	31640,63	0,0194818	0,0055371	1	0,0202534	15,86627	14,59912	5,173584	13	0,292194	0,0059105	22,5811
	6	14	25171,88	0,0195583	0,0042612	1	0,0200171	12,2911	14,59894	5,173593	13	0,2878176	0,0057562	22,58638
	7	16	20015,62	0,0196443	0,0032555	1	0,0199122	9,409778	14,59832	5,173595	13	0,2825822	0,0056235	22,57667
	8	18	15890,62	0,0197504	0,0024628	1	0,0199034	7,107926	14,59468	5,173507	13	0,2743043	0,0054574	22,56912
	9	19	12609,38	0,0198487	0,0018338	1	0,0199332	5,278409	14,59869	5,173654	13	0,2668893	0,0053186	22,57661
	10	21	10078,13	0,019951	0,0013653	1	0,0199977	3,914799	14,59391	5,173538	13	0,2609243	0,005217	22,5722
	11	22	8015,625	0,020028	0,0010043	1	0,0200531	2,870651	14,59609	5,173596	13	0,2566812	0,0051467	22,56741
	12	24	6328,125	0,0201043	0,0007196	1	0,0201172	2,049915	14,59546	5,173593	13	0,2531996	0,0050933	22,5724
	13	26	5015,625	0,0201891	0,0004953	1	0,0201952	1,40532	14,59273	5,173543	13	0,2509209	0,0050672	22,56996
	14	27	3984,375	0,020236	0,0003228	1	0,0202386	0,9138522	14,59446	5,173587	13	0,2491015	0,0050413	22,564
	15	29	3170,956	0,0202848	0,0001826	1	0,0202856	0,5158085	14,59295	5,173577	13	0,2474474	0,0050195	22,55353
	16	31	2527,573	0,0203191	7,811713E-005	1	0,0203192	0,2202736	14,59356	5,173583	13	0,2468976	0,0050167	22,56489
	17	32	1976,103	0,0203628	-2,588162E-005	1	0,0203628	-0,0728242	14,59277	5,173583	13	0,2458251	0,0050057	22,55956
	18	34	1577,524	0,0203992	-0,0000987	1	0,0203994	-0,2772794	14,59322	5,173581	13	0,2454163	0,0050063	22,56002
	19	36	1265,625	0,0204287	-0,0001804	1	0,0204294	-0,5058824	14,59188	5,17354	13	0,2447618	0,0050003	22,55917
	20	38	998,264	0,0204669	-0,0002668	1	0,0204686	-0,7467827	14,59255	5,173564	13	0,2444969	0,0050045	22,56004
	21	39	796,875	0,0205168	-0,0003334	1	0,0205195	-0,9308792	14,5938	5,173609	13	0,2437054	0,0050007	22,56098
	22	41	627,7902	0,0205524	-0,0004483	1	0,0205573	-1,249463	14,59355	5,17359	13	0,242825	0,0049918	22,55594
	23	42	505,5147	0,0206166	-0,0005188	1	0,0206231	-1,441561	14,59247	5,173551	13	0,2387993	0,0049629	22,56051
	24	44	397,9953	0,0206868	-0,0006167	1	0,020696	-1,707519	14,59052	5,173512	13	0,2425162	0,0050417	22,57102
	25	45	315,5048	0,0207649	-0,0007208	1	0,0207774	-1,988024	14,59112	5,173525	13	0,2402696	0,0050056	22,56885
	26	47	252,4038	0,020856	-0,0008318	1	0,0208726	-2,284003	14,59351	5,173589	13	0,2391323	0,0049997	22,57287
	27	48	198,6229	0,0209696	-0,0009604	1	0,0209916	-2,622428	14,59253	5,173595	13	0,2377557	0,0049959	22,56236
	28	50	158,3615	0,021099	-0,0010906	1	0,0211272	-2,958879	14,59353	5,17363	13	0,2362758	0,004995	22,57294
	29	51	125,558	0,0212547	-0,0012406	1	0,0212908	-3,340375	14,58918	5,173537	13	0,2345025	0,0049947	22,57097
	30	53	100,4464	0,0214313	-0,0013941	1	0,0214766	-3,721942	14,59119	5,173574	13	0,2325919	0,0049965	22,56688
	31	54	79,00281	0,0216543	-0,001563	1	0,0217106	-4,128467	14,59185	5,173589	13	0,2300985	0,0049964	22,55537
	32	56	63,3446	0,0219025	-0,0017185	1	0,0219698	-4,48622	14,59011	5,173544	13	0,2271648	0,0049913	22,56498
	33	58	50,22321	0,0221944	-0,0018828	1	0,0222741	-4,848804	14,59263	5,17361	13	0,2239562	0,0049887	22,56219
	34	60	38,42213	0,0225968	-0,0020404	1	0,0226887	-5,159595	14,59197	5,173593	13	0,2185843	0,0049596	22,55279
	35	61	31,25	0,0229498	-0,0021371	1	0,0230491	-5,320017	14,59086	5,173561	13	0,2140466	0,0049337	22,56433
	36	63	24,93351	0,0233629	-0,0021926	1	0,0234656	-5,361398	14,59063	5,173557	13	0,2059958	0,0048339	22,55156
	37	64	19,86229	0,0238045	-0,0021829	1	0,0239043	-5,239326	14,59202	5,173601	13	0,2241069	0,0053572	22,55444
	38	66	15,625	0,0242407	-0,0020911	1	0,0243307	-4,930334	14,59073	5,173553	13	0,2055499	0,0050012	22,55328
	39	67	12,40079	0,0246534	-0,0019729	1	0,0247322	-4,575366	14,58877	5,173507	13	0,2019775	0,0049954	22,54968
	40	69	9,93114	0,0249596	-0,0017826	1	0,0250232	-4,085188	14,59053	5,173549	13	0,2000425	0,0050057	22,54582
	41	71	7,944915	0,0252494	-0,0015923	1	0,0252996	-3,608404	14,58973	5,173525	13	0,198227	0,0050151	22,55407
	42	73	6,317385	0,0254567	-0,0013986	1	0,0254951	-3,144628	14,59124	5,173551	13	0,1960058	0,0049972	22,56319
	43	75	5,008013	0,0256202	-0,0012163	1	0,025649	-2,718104	14,59181	5,173541	13	0,193946	0,0049745	22,57687
	44	77	3,945707	0,025743	-0,001038	1	0,0257639	-2,308961	14,59237	5,173538	13	0,1948926	0,0050212	22,56435
	45	80	3,158693	0,0258387	-0,0009134	1	0,0258548	-2,024548	14,59332	5,173527	13	0,1928722	0,0049867	22,56413
	46	84	2,504006	0,0259039	-0,0008017	1	0,0259163	-1,772786	14,59417	5,173544	13	0,1873042	0,0048608	22,57033
	47	89	1,998082	0,0259802	-0,0007144	1	0,02599	-1,575087	14,59579	5,173554	13	0,1954558	0,0050845	22,57504
	48	94	1,584686	0,0260366	-0,00065	1	0,0260447	-1,430117	14,59724	5,173552	13	0,1928835	0,0050265	22,60482
	49	100	1,266892	0,0260845	-0,0005949	1	0,0260912	-1,306478	14,59934	5,173543	13	0,192379	0,0050213	22,5897
	50	107	0,999041	0,026132	-0,0005609	1	0,026138	-1,229668	14,60034	5,173542	13	0,1918857	0,0050167	22,58774
	51	114	0,7923428	0,0261955	-0,000528	1	0,0262009	-1,154731	14,5996	5,173536	13	0,1904845	0,0049916	22,59194
	52	122	0,6334459	0,0262614	-0,0005157	1	0,0262664	-1,124909	14,59934	5,173549	13	0,1904358	0,0050025	22,58114
	53	130	0,5040323	0,0263231	-0,0004905	1	0,0263277	-1,067613	14,60018	5,173543	13	0,1903019	0,0050105	22,57157
	54	139	0,400641	0,0264053	-0,0004664	1	0,0264094	-1,01202	14,60372	5,173544	13	0,1893111	0,0049998	22,56108
	55	153	0,316723	0,0264545	-0,0004717	1	0,0264587	-1,021482	14,60571	5,173544	13	0,188587	0,0049899	22,59304
	56	171	0,2520161	0,0265093	-0,0004344	1	0,0265128	-0,9387358	14,61176	5,173541	13	0,1890191	0,0050115	22,57662
	57	192	0,2003205	0,0265591	-0,0004128	1	0,0265623	-0,8905206	14,6157	5,173547	13	0,1881015	0,0049965	22,58158
	58	219	0,1588983	0,0266771	-0,0003755	1	0,0266797	-0,8063338	14,62168	5,173536	13	0,187422	0,0050004	22,57482
	59	244	0,1260081	0,0267091	-0,0003229	1	0,0267111	-0,6925402	14,63043	5,173538	13	0,187171	0,0049996	22,57153
	60	274	0,1001603	0,0268089	-0,0002424	1	0,02681	-0,5180296	14,64448	5,173526	13	0,1864832	0,0049996	22,55573
