EXPLAIN
TAG	EISPOT
TITLE	LABEL	Potentiostatic EIS	Test Identifier
DATE	LABEL	10/3/2026	Date
TIME	LABEL	16:50:54	Time
NOTES	NOTES	1	Notes...
	
PSTAT	PSTAT	REF3000-46189	Potentiostat
VDC	POTEN	5,53386E+000	F	Last Measured Potential (V)
FREQINIT	QUANT	1,00000E+005	Initial Freq. (Hz)
FREQFINAL	QUANT	1,00000E-001	Final Freq. (Hz)
PTSPERDEC	QUANT	1,00000E+001	Points/decade
VAC	QUANT	5,00000E+000	AC Voltage (mV rms)
AREA	QUANT	2,50000E+001	Sample Area (cm^2)
SPEED	SELECTOR	1	Optimize for:
DRIFTCOR	SELECTOR	0	Drift Correction
THD	SELECTOR	0	THD
ZGUESS	QUANT	2,00000E-002	Estimated Z (ohms)
EOC	QUANT	0,3141339	Open Circuit (V)
SEQUENCER	TOGGLE	TRUE	Run as Sequence
PSTATMODEL	IQUANT	6	Pstat Model
PSTATSECTION	LABEL	REF30K-46189	Pstat Section
PSTATSERIALNO	LABEL	46189	Pstat Serial Number
CTRLMODE	IQUANT	1	Control Mode
ELECTROMETER	IQUANT	0	RE=0 or CS=1
IESTAB	IQUANT	0	I/E Stability
CASPEED	IQUANT	3	Control Amp Speed
CONVENTION	IQUANT	1	Current Convention
ICHRANGE	IQUANT	2	Ich Range
ICHRANGEMODE	TOGGLE	F	Ich Auto Range
ICHOFFSETENABLE	TOGGLE	T	Ich Offset Enable
ICHOFFSET	QUANT	0	Ich Offset (V)
ICHFILTER	IQUANT	3	Ich Filter
VCHRANGE	IQUANT	2	Vch Range
VCHRANGEMODE	TOGGLE	F	Vch Auto Range
VCHOFFSETENABLE	TOGGLE	T	Vch Offset Enable
VCHOFFSET	QUANT	0	Vch Offset (V)
VCHFILTER	IQUANT	3	Vch Filter
ACHRANGE	IQUANT	2	Ach Range
ACHOFFSETENABLE	TOGGLE	F	Ach Offset Enable
ACHOFFSET	QUANT	0	Ach Offset (V)
ACHFILTER	IQUANT	1	Ach Filter
IERANGELOWERLIMIT	IQUANT	13	I/E Range Lower Limit
IERANGEMODE	TOGGLE	F	I/E AutoRange
IERANGE	IQUANT	13	I/E Range
POSFEEDENABLE	TOGGLE	F	Positive Feedback IR Comp
POSFEEDRESISTANCE	QUANT	0	Positive Feedback Resistance (ohm)
ACHSELECT	IQUANT	4	Ach Select
SENSECABLEID	IQUANT	14	Sense Cable ID
PWRCABLEID	IQUANT	8	Power Cable ID
DCCALDATE	LABEL	10/1/2025	DC Calibration Date
ACCALDATE	LABEL	10/1/2025	AC Calibration Date
THERMOSELECT	IQUANT	1	Thermo Select
FRAMEWORKVERSION	LABEL	7.10.1	Framework Version
INSTRUMENTVERSION	LABEL	4.80	Instrument Version
COMMVERSION	LABEL	5.10	Communications Version
CPUPLDVERSION	LABEL	6.00	CPU PLD Version
CTRLPLDVERSION	LABEL	3.21	CTRL PLD Version
PSTATPLDVERSION	LABEL	0.00	PSTAT PLD Version
BOOSTERDCCALDATE	LABEL	10/1/2025	Booster DC Calibration Date
ZCURVE	TABLE
	Pt	Time	Freq	Zreal	Zimag	Zsig	Zmod	Zphz	Idc	Vdc	IERange	Imod	Vmod	Temp
	#	s	Hz	ohm	ohm	V	ohm	°	A	V	#	A	V	°C
	0	4	100078,1	0,0186561	0,0190474	1	0,0266618	45,59454	29,47319	5,526514	13	0,188063	0,0049911	22,66217
	1	6	79453,13	0,0185036	0,0150851	1	0,0238735	39,18877	29,4881	5,526547	13	0,2687706	0,0063954	22,65605
	2	8	63140,62	0,0184084	0,0119323	1	0,0219374	32,9512	29,50114	5,526526	13	0,2846707	0,0062279	22,65634
	3	11	50203,12	0,0183572	0,0094069	1	0,0206271	27,1321	29,51467	5,526504	13	0,2931315	0,006033	22,64304
	4	12	39890,62	0,0183325	0,0073699	1	0,0197584	21,90085	29,5255	5,526556	13	0,2982407	0,0058826	22,65006
	5	14	31640,63	0,0183689	0,0057332	1	0,0192428	17,33384	29,53236	5,526524	13	0,2961059	0,0056907	22,65096
	6	15	25171,88	0,0184072	0,0044386	1	0,0189347	13,55722	29,54074	5,526488	13	0,2885334	0,0054585	22,64116
	7	17	20015,62	0,0184701	0,0033992	1	0,0187802	10,42795	29,5496	5,52653	13	0,2828849	0,0053095	22,64666
	8	19	15890,62	0,0185538	0,0025823	1	0,0187327	7,923396	29,55552	5,526469	13	0,2779388	0,0052045	22,65301
	9	20	12609,38	0,0186423	0,0019372	1	0,0187427	5,932586	29,56439	5,526497	13	0,2734399	0,0051237	22,65701
	10	22	10078,13	0,0187329	0,001443	1	0,0187884	4,404773	29,57469	5,526549	13	0,2702487	0,0050767	22,65651
	11	24	8015,625	0,0188136	0,0010559	1	0,0188432	3,212438	29,58119	5,526515	13	0,2679781	0,005049	22,65634
	12	25	6328,125	0,0188821	0,0007424	1	0,0188967	2,251599	29,59089	5,526507	13	0,2661946	0,0050299	22,65578
	13	27	5015,625	0,0189582	0,0005094	1	0,0189651	1,539258	29,59889	5,526514	13	0,2646305	0,0050185	22,65721
	14	29	3984,375	0,0190101	0,000327	1	0,019013	0,985599	29,60479	5,52651	13	0,2635337	0,0050104	22,64911
	15	30	3170,956	0,0190522	0,0001845	1	0,0190531	0,5548632	29,61394	5,526492	13	0,2628903	0,0050088	22,64612
	16	32	2527,573	0,0190986	5,685058E-005	1	0,0190987	0,1705512	29,61961	5,526463	13	0,2620201	0,0050042	22,64865
	17	34	1976,103	0,019146	-5,616933E-005	1	0,0191461	-0,1680901	29,63022	5,52654	13	0,2612449	0,0050018	22,66258
	18	36	1577,524	0,0191771	-0,0001579	1	0,0191777	-0,4717564	29,63785	5,526525	13	0,2606711	0,0049991	22,6526
	19	37	1265,625	0,0192203	-0,000245	1	0,0192219	-0,7301667	29,64519	5,526515	13	0,2602011	0,0050015	22,6459
	20	39	998,264	0,0192698	-0,0003633	1	0,0192733	-1,079969	29,65378	5,526573	13	0,2592168	0,0049959	22,65488
	21	41	796,875	0,0193264	-0,0004427	1	0,0193315	-1,312193	29,65831	5,526526	13	0,2587511	0,005002	22,65155
	22	42	627,7902	0,019387	-0,000533	1	0,0193943	-1,574901	29,66219	5,526497	13	0,2577747	0,0049994	22,65614
	23	44	505,5147	0,0194645	-0,0006438	1	0,0194752	-1,894332	29,67111	5,526515	13	0,2527727	0,0049609	22,6579
	24	45	397,9953	0,0195625	-0,0007513	1	0,0195769	-2,199261	29,67692	5,526514	13	0,2562844	0,0050399	22,65911
	25	47	315,5048	0,0196775	-0,0008625	1	0,0196964	-2,509719	29,68559	5,526559	13	0,253587	0,0050082	22,66228
	26	48	252,4038	0,0198046	-0,0009728	1	0,0198285	-2,811967	29,6907	5,526518	13	0,2516305	0,0049978	22,66522
	27	50	198,6229	0,019964	-0,0010875	1	0,0199936	-3,117921	29,69512	5,526486	13	0,2495791	0,004995	22,65734
	28	51	158,3615	0,0201372	-0,0012001	1	0,0201729	-3,41047	29,70182	5,526531	13	0,2475441	0,0049968	22,67065
	29	53	125,558	0,020344	-0,0013028	1	0,0203857	-3,664252	29,70727	5,526478	13	0,2448714	0,0049938	22,66479
	30	55	100,4464	0,020561	-0,0013968	1	0,0206083	-3,886444	29,71559	5,526511	13	0,2425115	0,004999	22,67121
	31	56	79,00281	0,0208193	-0,0014845	1	0,0208721	-4,078592	29,72348	5,526517	13	0,2392308	0,004994	22,6708
	32	58	63,3446	0,0210726	-0,0015298	1	0,0211281	-4,152122	29,72741	5,52648	13	0,2362561	0,0049921	22,67738
	33	60	50,22321	0,0213539	-0,0015567	1	0,0214106	-4,1696	29,73525	5,526489	13	0,2329099	0,004987	22,68015
	34	61	38,42213	0,0216765	-0,0015525	1	0,021732	-4,096691	29,74116	5,526481	13	0,2280604	0,0049564	22,67575
	35	63	31,25	0,0219162	-0,0015159	1	0,0219686	-3,956778	29,74795	5,526521	13	0,2247981	0,0049386	22,67445
	36	65	24,93351	0,0221596	-0,001457	1	0,0222074	-3,761853	29,75391	5,526519	13	0,2178153	0,0048372	22,66012
	37	66	19,86229	0,0224379	-0,0013928	1	0,0224811	-3,551999	29,76566	5,526597	13	0,2388763	0,0053703	22,65764
	38	68	15,625	0,0225918	-0,0012944	1	0,0226289	-3,279257	29,76924	5,526557	13	0,2207851	0,0049962	22,67187
	39	69	12,40079	0,0227917	-0,0012451	1	0,0228257	-3,12681	29,77242	5,526482	13	0,2197959	0,005017	22,65981
	40	71	9,93114	0,0229235	-0,0011786	1	0,0229538	-2,943153	29,7827	5,526591	13	0,2164745	0,0049689	22,65942
	41	72	7,944915	0,0230572	-0,0011221	1	0,0230845	-2,78626	29,79146	5,526595	13	0,217882	0,0050297	22,66607
	42	74	6,317385	0,023218	-0,0011167	1	0,0232448	-2,753688	29,80352	5,526537	13	0,2146669	0,0049899	22,67463
	43	78	5,008013	0,0233513	-0,0011035	1	0,0233774	-2,705564	29,81771	5,526542	13	0,2127392	0,0049733	22,67745
	44	81	3,945707	0,0234818	-0,0010851	1	0,0235069	-2,645707	29,8349	5,526568	13	0,2132645	0,0050132	22,6649
	45	85	3,158693	0,0236376	-0,0010965	1	0,023663	-2,655884	29,84468	5,52652	13	0,2118157	0,0050122	22,66707
	46	88	2,504006	0,0237685	-0,0010715	1	0,0237926	-2,581234	29,85701	5,526542	13	0,2018355	0,0048087	22,67473
	47	91	1,998082	0,0239265	-0,0010683	1	0,0239503	-2,556529	29,87839	5,526549	13	0,213532	0,0051188	22,66567
	48	99	1,584686	0,0240909	-0,0010904	1	0,0241156	-2,591641	29,90953	5,526551	13	0,2102726	0,0050738	22,67215
	49	107	1,266892	0,0242657	-0,0010784	1	0,0242897	-2,544513	29,94596	5,526531	13	0,2045572	0,0049705	22,68174
	50	118	0,999041	0,024407	-0,0010623	1	0,0244301	-2,492179	29,98055	5,52654	13	0,2041056	0,0049875	22,69065
	51	127	0,7923428	0,0246236	-0,0010579	1	0,0246464	-2,460052	30,02156	5,526543	13	0,2039402	0,0050271	22,70288
	52	138	0,6334459	0,0248263	-0,000997	1	0,0248464	-2,299781	30,07479	5,526549	13	0,2008711	0,0049914	22,70198
	53	150	0,5040323	0,0250239	-0,0009604	1	0,0250423	-2,197905	30,13843	5,526544	13	0,2000548	0,0050101	22,75127
	54	168	0,400641	0,0251419	-0,0009133	1	0,0251585	-2,080376	30,20482	5,526532	13	0,1992931	0,0050141	22,73881
	55	187	0,316723	0,0253579	-0,000788	1	0,0253701	-1,779801	30,28471	5,526536	13	0,196853	0,0049943	22,77449
	56	211	0,2520161	0,0254829	-0,0006722	1	0,0254918	-1,511075	30,37514	5,526512	13	0,1963651	0,0050058	22,78148
	57	240	0,2003205	0,0257173	-0,0005595	1	0,0257234	-1,246382	30,46872	5,526532	13	0,1941336	0,0049938	22,75911
	58	272	0,1588983	0,0258151	-0,0003334	1	0,0258172	-0,7400181	30,60789	5,52651	13	0,1936197	0,0049988	22,7619
	59	315	0,1260081	0,0258341	-0,0001553	1	0,0258345	-0,344491	30,75546	5,526514	13	0,1937566	0,0050056	22,76746
	60	366	0,1001603	0,0259998	7,116048E-005	1	0,0259999	0,1568158	30,93742	5,526505	13	0,192164	0,0049963	22,84232
