EXPLAIN
TAG	EISPOT
TITLE	LABEL	Potentiostatic EIS	Test Identifier
DATE	LABEL	10/3/2026	Date
TIME	LABEL	16:36:18	Time
NOTES	NOTES	1	Notes...
	
PSTAT	PSTAT	REF3000-46189	Potentiostat
VDC	POTEN	4,70683E+000	F	Last Measured Potential (V)
FREQINIT	QUANT	1,00000E+005	Initial Freq. (Hz)
FREQFINAL	QUANT	1,00000E-001	Final Freq. (Hz)
PTSPERDEC	QUANT	1,00000E+001	Points/decade
VAC	QUANT	5,00000E+000	AC Voltage (mV rms)
AREA	QUANT	2,50000E+001	Sample Area (cm^2)
SPEED	SELECTOR	1	Optimize for:
DRIFTCOR	SELECTOR	0	Drift Correction
THD	SELECTOR	0	THD
ZGUESS	QUANT	2,00000E-002	Estimated Z (ohms)
EOC	QUANT	0,3141339	Open Circuit (V)
SEQUENCER	TOGGLE	TRUE	Run as Sequence
PSTATMODEL	IQUANT	6	Pstat Model
PSTATSECTION	LABEL	REF30K-46189	Pstat Section
PSTATSERIALNO	LABEL	46189	Pstat Serial Number
CTRLMODE	IQUANT	1	Control Mode
ELECTROMETER	IQUANT	0	RE=0 or CS=1
IESTAB	IQUANT	0	I/E Stability
CASPEED	IQUANT	3	Control Amp Speed
CONVENTION	IQUANT	1	Current Convention
ICHRANGE	IQUANT	2	Ich Range
ICHRANGEMODE	TOGGLE	F	Ich Auto Range
ICHOFFSETENABLE	TOGGLE	T	Ich Offset Enable
ICHOFFSET	QUANT	0	Ich Offset (V)
ICHFILTER	IQUANT	3	Ich Filter
VCHRANGE	IQUANT	2	Vch Range
VCHRANGEMODE	TOGGLE	F	Vch Auto Range
VCHOFFSETENABLE	TOGGLE	T	Vch Offset Enable
VCHOFFSET	QUANT	0	Vch Offset (V)
VCHFILTER	IQUANT	3	Vch Filter
ACHRANGE	IQUANT	2	Ach Range
ACHOFFSETENABLE	TOGGLE	F	Ach Offset Enable
ACHOFFSET	QUANT	0	Ach Offset (V)
ACHFILTER	IQUANT	1	Ach Filter
IERANGELOWERLIMIT	IQUANT	13	I/E Range Lower Limit
IERANGEMODE	TOGGLE	F	I/E AutoRange
IERANGE	IQUANT	13	I/E Range
POSFEEDENABLE	TOGGLE	F	Positive Feedback IR Comp
POSFEEDRESISTANCE	QUANT	0	Positive Feedback Resistance (ohm)
ACHSELECT	IQUANT	4	Ach Select
SENSECABLEID	IQUANT	14	Sense Cable ID
PWRCABLEID	IQUANT	8	Power Cable ID
DCCALDATE	LABEL	10/1/2025	DC Calibration Date
ACCALDATE	LABEL	10/1/2025	AC Calibration Date
THERMOSELECT	IQUANT	1	Thermo Select
FRAMEWORKVERSION	LABEL	7.10.1	Framework Version
INSTRUMENTVERSION	LABEL	4.80	Instrument Version
COMMVERSION	LABEL	5.10	Communications Version
CPUPLDVERSION	LABEL	6.00	CPU PLD Version
CTRLPLDVERSION	LABEL	3.21	CTRL PLD Version
PSTATPLDVERSION	LABEL	0.00	PSTAT PLD Version
BOOSTERDCCALDATE	LABEL	10/1/2025	Booster DC Calibration Date
ZCURVE	TABLE
	Pt	Time	Freq	Zreal	Zimag	Zsig	Zmod	Zphz	Idc	Vdc	IERange	Imod	Vmod	Temp
	#	s	Hz	ohm	ohm	V	ohm	°	A	V	#	A	V	°C
	0	4	100078,1	0,0200631	0,0185992	1	0,027358	42,83169	1,308981	4,701482	13	0,1835223	0,0049978	22,48238
	1	6	79453,13	0,0200452	0,0145983	1	0,0247975	36,0647	1,299299	4,70147	13	0,2554055	0,0063126	22,47986
	2	8	63140,62	0,0200786	0,0114263	1	0,0231022	29,64333	1,292414	4,701463	13	0,269309	0,0062046	22,47807
	3	10	50203,12	0,0201639	0,0089044	1	0,0220425	23,82619	1,285354	4,701449	13	0,2759373	0,0060688	22,48055
	4	12	39890,62	0,020265	0,0068787	1	0,0214006	18,74903	1,28115	4,701417	13	0,2778694	0,0059364	22,49041
	5	13	31640,63	0,0203921	0,0052783	1	0,0210642	14,51208	1,277456	4,701488	13	0,2748038	0,0057812	22,47901
	6	15	25171,88	0,0205285	0,004029	1	0,0209201	11,104	1,273431	4,701476	13	0,2661849	0,0055637	22,46705
	7	17	20015,62	0,020656	0,0030516	1	0,0208802	8,403858	1,269756	4,701457	13	0,2584596	0,0053935	22,48035
	8	18	15890,62	0,0207951	0,0022698	1	0,0209186	6,229271	1,26752	4,701492	13	0,2518967	0,0052672	22,45998
	9	20	12609,38	0,0209194	0,0016768	1	0,0209865	4,582655	1,26451	4,701489	13	0,246396	0,0051697	22,4672
	10	22	10078,13	0,0210324	0,0012294	1	0,0210683	3,345396	1,262201	4,701488	13	0,2422963	0,0051039	22,46449
	11	23	8015,625	0,0211255	0,0008641	1	0,0211431	2,342376	1,258744	4,701431	13	0,2395014	0,0050633	22,46157
	12	25	6328,125	0,0212272	0,0005958	1	0,0212355	1,607649	1,256548	4,701475	13	0,2376541	0,0050464	22,46353
	13	27	5015,625	0,0213099	0,0003689	1	0,0213131	0,991777	1,2543	4,70148	13	0,2357443	0,0050242	22,4725
	14	28	3984,375	0,0213725	0,0002071	1	0,0213735	0,5552547	1,253737	4,701511	13	0,2347408	0,0050171	22,45772
	15	30	3170,956	0,0214244	6,753438E-005	1	0,0214245	0,1806081	1,251105	4,701496	13	0,2335296	0,0050032	22,46277
	16	32	2527,573	0,0214928	-3,831941E-005	1	0,0214928	-0,1021523	1,249822	4,701515	13	0,2330585	0,005009	22,45417
	17	33	1976,103	0,0215444	-0,0001446	1	0,0215449	-0,384636	1,247559	4,70149	13	0,2321273	0,0050011	22,45403
	18	35	1577,524	0,0215911	-0,0002352	1	0,0215924	-0,6240487	1,2457	4,701468	13	0,2316034	0,0050008	22,46134
	19	36	1265,625	0,0216326	-0,0003213	1	0,021635	-0,8509127	1,24389	4,701465	13	0,2311922	0,0050018	22,44613
	20	38	998,264	0,0216831	-0,000409	1	0,021687	-1,0807	1,242291	4,701431	13	0,2305871	0,0050007	22,45587
	21	40	796,875	0,0217448	-0,0004988	1	0,0217506	-1,314015	1,241472	4,701489	13	0,2299115	0,0050007	22,45899
	22	41	627,7902	0,0217995	-0,0006102	1	0,021808	-1,603437	1,239329	4,701453	13	0,2291845	0,0049981	22,45881
	23	43	505,5147	0,0218587	-0,000719	1	0,0218705	-1,88393	1,239313	4,701458	13	0,2250848	0,0049608	22,46355
	24	44	397,9953	0,0219336	-0,0008521	1	0,0219501	-2,224759	1,238458	4,701446	13	0,2288272	0,0050454	22,46682
	25	46	315,5048	0,0220131	-0,0010061	1	0,0220361	-2,616743	1,237162	4,70145	13	0,2265743	0,0050063	22,46305
	26	47	252,4038	0,0221099	-0,0011657	1	0,0221406	-3,017978	1,235213	4,701439	13	0,2253832	0,0049985	22,45488
	27	49	198,6229	0,0222178	-0,0013788	1	0,0222606	-3,551014	1,234538	4,701427	13	0,2241688	0,0049952	22,46776
	28	50	158,3615	0,0223388	-0,0016139	1	0,0223971	-4,132312	1,234009	4,701423	13	0,222955	0,0049967	22,46528
	29	52	125,558	0,0224875	-0,0018938	1	0,0225671	-4,813905	1,233987	4,701458	13	0,2212447	0,0049948	22,45738
	30	53	100,4464	0,0226478	-0,0022161	1	0,022756	-5,588499	1,232655	4,70146	13	0,2195077	0,0049964	22,46416
	31	55	79,00281	0,0228555	-0,0026215	1	0,0230053	-6,54307	1,230457	4,701454	13	0,2171497	0,0049964	22,46979
	32	57	63,3446	0,0230805	-0,0030616	1	0,0232827	-7,556132	1,229126	4,701441	13	0,2143784	0,0049918	22,45454
	33	58	50,22321	0,0233619	-0,0036139	1	0,0236398	-8,793518	1,228989	4,701491	13	0,2109208	0,0049864	22,46358
	34	60	38,42213	0,0237544	-0,0043732	1	0,0241536	-10,4313	1,227458	4,701425	13	0,2055026	0,0049638	22,47174
	35	61	31,25	0,0241047	-0,005053	1	0,0246287	-11,8393	1,226139	4,701401	13	0,2002648	0,0049324	22,46555
	36	63	24,93351	0,0245855	-0,0059293	1	0,0252904	-13,55906	1,2254	4,701446	13	0,1912671	0,0048373	22,46963
	37	65	19,86229	0,025218	-0,0070073	1	0,0261735	-15,52894	1,223687	4,701463	13	0,2042187	0,0053452	22,46454
	38	66	15,625	0,0259655	-0,0083098	1	0,0272628	-17,74636	1,223034	4,701431	13	0,1837337	0,0050091	22,45919
	39	68	12,40079	0,0268907	-0,0097761	1	0,0286127	-19,97873	1,222207	4,70148	13	0,1745708	0,004995	22,4591
	40	69	9,93114	0,0279677	-0,0113822	1	0,0301952	-22,14523	1,221726	4,701442	13	0,1658752	0,0050086	22,45555
	41	71	7,944915	0,0293093	-0,0132081	1	0,0321479	-24,2584	1,22245	4,701485	13	0,1554863	0,0049986	22,46202
	42	73	6,317385	0,0310739	-0,0152823	1	0,0346285	-26,18816	1,221165	4,701446	13	0,1440492	0,0049882	22,46968
	43	75	5,008013	0,0334218	-0,0176309	1	0,0377871	-27,81283	1,21977	4,701406	13	0,132861	0,0050204	22,45846
	44	77	3,945707	0,0363831	-0,0201011	1	0,0415666	-28,91993	1,219132	4,701459	13	0,1204712	0,0050076	22,45582
	45	79	3,158693	0,0397846	-0,0223755	1	0,0456451	-29,35413	1,218816	4,701459	13	0,1093665	0,004992	22,46481
	46	82	2,504006	0,0441048	-0,024502	1	0,0504538	-29,05393	1,21759	4,701449	13	0,0959096	0,0048456	22,49191
	47	86	1,998082	0,0489271	-0,0260605	1	0,0554347	-28,04152	1,217118	4,701454	13	0,0914817	0,0050759	22,50218
	48	90	1,584686	0,0544097	-0,0269599	1	0,0607227	-26,35833	1,215294	4,701449	13	0,0832502	0,0050581	22,50739
	49	95	1,266892	0,0598416	-0,0268775	1	0,0656005	-24,18694	1,213439	4,701463	13	0,076333	0,0050094	22,51274
	50	102	0,999041	0,0654915	-0,0258894	1	0,070423	-21,56937	1,211247	4,701444	13	0,0709581	0,0049982	22,50461
	51	108	0,7923428	0,0705021	-0,0240513	1	0,0744917	-18,83675	1,209454	4,701456	13	0,0671719	0,0050045	22,51912
	52	115	0,6334459	0,0745629	-0,0217698	1	0,0776759	-16,27598	1,207349	4,701448	13	0,0643582	0,0049996	22,52963
	53	124	0,5040323	0,0779667	-0,0192918	1	0,0803179	-13,8979	1,205295	4,701455	13	0,0625502	0,0050242	22,53046
	54	134	0,400641	0,0806687	-0,0167403	1	0,0823873	-11,72356	1,203168	4,701447	13	0,0605655	0,00499	22,52888
	55	145	0,316723	0,0828844	-0,014326	1	0,0841133	-9,8063	1,200485	4,701438	13	0,0593327	0,0049908	22,51327
	56	159	0,2520161	0,0845364	-0,0121485	1	0,0854048	-8,177832	1,196683	4,701447	13	0,0586277	0,0050072	22,50497
	57	181	0,2003205	0,0861319	-0,0102297	1	0,0867372	-6,773202	1,192851	4,701441	13	0,0576949	0,0050043	22,52372
	58	202	0,1588983	0,0871363	-0,0085623	1	0,087556	-5,612067	1,189476	4,701443	13	0,0569994	0,0049907	22,52493
	59	234	0,1260081	0,0879223	-0,0070277	1	0,0882028	-4,570001	1,185833	4,701448	13	0,0567229	0,0050031	22,47956
	60	265	0,1001603	0,0886676	-0,0058956	1	0,0888634	-3,804072	1,182466	4,701442	13	0,0562834	0,0050015	22,51809
