EXPLAIN
TAG	EISPOT
TITLE	LABEL	Potentiostatic EIS	Test Identifier
DATE	LABEL	20/8/2026	Date
TIME	LABEL	13:05:53	Time
NOTES	NOTES	1	Notes...
	
PSTAT	PSTAT	REF3000-46189	Potentiostat
VDC	POTEN	1,67390E+000	F	Last Measured Potential (V)
FREQINIT	QUANT	1,00000E+005	Initial Freq. (Hz)
FREQFINAL	QUANT	1,00000E-001	Final Freq. (Hz)
PTSPERDEC	QUANT	1,00000E+001	Points/decade
VAC	QUANT	5,00000E+000	AC Voltage (mV rms)
AREA	QUANT	2,50000E+001	Sample Area (cm^2)
SPEED	SELECTOR	1	Optimize for:
DRIFTCOR	SELECTOR	0	Drift Correction
THD	SELECTOR	0	THD
ZGUESS	QUANT	2,00000E-002	Estimated Z (ohms)
EOC	QUANT	0,7679437	Open Circuit (V)
SEQUENCER	TOGGLE	TRUE	Run as Sequence
PSTATMODEL	IQUANT	6	Pstat Model
PSTATSECTION	LABEL	REF30K-46189	Pstat Section
PSTATSERIALNO	LABEL	46189	Pstat Serial Number
CTRLMODE	IQUANT	1	Control Mode
ELECTROMETER	IQUANT	0	RE=0 or CS=1
IESTAB	IQUANT	0	I/E Stability
CASPEED	IQUANT	3	Control Amp Speed
CONVENTION	IQUANT	1	Current Convention
ICHRANGE	IQUANT	2	Ich Range
ICHRANGEMODE	TOGGLE	F	Ich Auto Range
ICHOFFSETENABLE	TOGGLE	T	Ich Offset Enable
ICHOFFSET	QUANT	0	Ich Offset (V)
ICHFILTER	IQUANT	3	Ich Filter
VCHRANGE	IQUANT	2	Vch Range
VCHRANGEMODE	TOGGLE	F	Vch Auto Range
VCHOFFSETENABLE	TOGGLE	T	Vch Offset Enable
VCHOFFSET	QUANT	0	Vch Offset (V)
VCHFILTER	IQUANT	3	Vch Filter
ACHRANGE	IQUANT	2	Ach Range
ACHOFFSETENABLE	TOGGLE	F	Ach Offset Enable
ACHOFFSET	QUANT	0	Ach Offset (V)
ACHFILTER	IQUANT	1	Ach Filter
IERANGELOWERLIMIT	IQUANT	13	I/E Range Lower Limit
IERANGEMODE	TOGGLE	F	I/E AutoRange
IERANGE	IQUANT	13	I/E Range
POSFEEDENABLE	TOGGLE	F	Positive Feedback IR Comp
POSFEEDRESISTANCE	QUANT	0	Positive Feedback Resistance (ohm)
ACHSELECT	IQUANT	4	Ach Select
SENSECABLEID	IQUANT	14	Sense Cable ID
PWRCABLEID	IQUANT	8	Power Cable ID
DCCALDATE	LABEL	10/1/2025	DC Calibration Date
ACCALDATE	LABEL	10/1/2025	AC Calibration Date
THERMOSELECT	IQUANT	1	Thermo Select
FRAMEWORKVERSION	LABEL	7.10.1	Framework Version
INSTRUMENTVERSION	LABEL	4.80	Instrument Version
COMMVERSION	LABEL	5.10	Communications Version
CPUPLDVERSION	LABEL	6.00	CPU PLD Version
CTRLPLDVERSION	LABEL	3.21	CTRL PLD Version
PSTATPLDVERSION	LABEL	0.00	PSTAT PLD Version
BOOSTERDCCALDATE	LABEL	10/1/2025	Booster DC Calibration Date
ZCURVE	TABLE
	Pt	Time	Freq	Zreal	Zimag	Zsig	Zmod	Zphz	Idc	Vdc	IERange	Imod	Vmod	Temp
	#	s	Hz	ohm	ohm	V	ohm	°	A	V	#	A	V	°C
	0	5	100078,1	0,0132802	0,0068607	1	0,0149476	27,32132	8,523832	1,671416	13	0,3359605	0,0050005	64,09262
	1	6	79453,13	0,0130284	0,0056336	1	0,0141942	23,38393	8,523144	1,671412	13	0,4546035	0,0064315	64,10409
	2	8	63140,62	0,012821	0,0046293	1	0,0136311	19,85315	8,518073	1,671402	13	0,4630848	0,0062951	64,08516
	3	9	50203,12	0,0126354	0,003807	1	0,0131965	16,76724	8,51953	1,67141	13	0,4681163	0,0061637	64,08459
	4	12	39890,62	0,0124834	0,0031174	1	0,0128668	14,0215	8,518579	1,671395	13	0,483492	0,0062103	64,08118
	5	14	31640,63	0,0123608	0,0025462	1	0,0126204	11,63937	8,518785	1,671401	13	0,4850093	0,0061133	64,07207
	6	15	25171,88	0,0122598	0,0020845	1	0,0124357	9,64947	8,517739	1,671395	13	0,4847104	0,0060224	64,07935
	7	17	20015,62	0,0121797	0,0016998	1	0,0122978	7,944918	8,516178	1,671407	13	0,4822676	0,0059273	64,07941
	8	19	15890,62	0,0121141	0,0013796	1	0,0121924	6,49699	8,513361	1,671384	13	0,4776049	0,0058208	64,06999
	9	20	12609,38	0,0120633	0,0011214	1	0,0121153	5,310888	8,506836	1,671414	13	0,4701373	0,0056944	64,06675
	10	22	10078,13	0,0120244	0,0009065	1	0,0120585	4,311124	8,511891	1,671408	13	0,460102	0,0055472	64,05512
	11	24	8015,625	0,011993	0,0007293	1	0,0120152	3,479736	8,515523	1,671405	13	0,4513267	0,0054222	64,05071
	12	25	6328,125	0,0119679	0,0005755	1	0,0119817	2,752866	8,512922	1,671402	13	0,4443757	0,005324	64,04346
	13	27	5015,625	0,0119498	0,000451	1	0,0119583	2,161577	8,510009	1,671415	13	0,4366854	0,0052218	64,05724
	14	29	3984,375	0,0119311	0,0003422	1	0,0119361	1,642854	8,509446	1,671397	13	0,4319909	0,0051561	64,03622
	15	30	3170,956	0,0119216	0,0002504	1	0,0119243	1,203406	8,510937	1,671402	13	0,4277371	0,0051004	64,03914
	16	32	2527,573	0,0119175	0,0001687	1	0,0119186	0,8110456	8,506727	1,671403	13	0,4251471	0,0050671	64,03736
	17	34	1976,103	0,0119184	9,105424E-005	1	0,0119187	0,4377211	8,507112	1,671405	13	0,4231024	0,0050428	64,03043
	18	35	1577,524	0,0119205	2,649554E-005	1	0,0119206	0,12735	8,508729	1,671402	13	0,4212675	0,0050217	64,03356
	19	37	1265,625	0,0119347	-4,036501E-005	1	0,0119347	-0,1937833	8,506272	1,671405	13	0,4201499	0,0050144	64,02927
	20	39	998,264	0,0119539	-0,0000985	1	0,0119543	-0,4722452	8,507893	1,671405	13	0,4192177	0,0050115	64,02245
	21	40	796,875	0,0119735	-0,0001511	1	0,0119744	-0,7231264	8,508781	1,671403	13	0,4176897	0,0050016	64,02175
	22	42	627,7902	0,0120051	-0,0002121	1	0,012007	-1,012206	8,509502	1,671397	13	0,4165028	0,005001	64,02525
	23	43	505,5147	0,012036	-0,0002748	1	0,0120391	-1,307862	8,510188	1,671389	13	0,4087849	0,0049595	64,01484
	24	45	397,9953	0,0120808	-0,000334	1	0,0120854	-1,583884	8,506468	1,671396	13	0,4151074	0,0050394	64,01813
	25	46	315,5048	0,0121258	-0,0003956	1	0,0121322	-1,868774	8,509112	1,671402	13	0,4115274	0,0050062	64,00579
	26	48	252,4038	0,0121812	-0,0004583	1	0,0121899	-2,154444	8,505248	1,671403	13	0,4094122	0,004999	64,00297
	27	49	198,6229	0,0122463	-0,0005308	1	0,0122578	-2,481755	8,504646	1,671398	13	0,4070827	0,004995	64,00252
	28	51	158,3615	0,012319	-0,0006047	1	0,0123338	-2,8102	8,50116	1,671388	13	0,4048451	0,0049964	64,00407
	29	52	125,558	0,0124045	-0,0006846	1	0,0124234	-3,158739	8,500437	1,671398	13	0,4018625	0,0049944	63,98976
	30	54	100,4464	0,0125	-0,0007679	1	0,0125236	-3,515498	8,496651	1,671377	13	0,3989032	0,0049969	63,98276
	31	56	79,00281	0,0126188	-0,0008633	1	0,0126483	-3,913597	8,495919	1,671393	13	0,3948532	0,004995	63,97703
	32	57	63,3446	0,0127431	-0,0009569	1	0,012779	-4,29427	8,504576	1,671398	13	0,390553	0,0049914	63,97403
	33	59	50,22321	0,0128931	-0,001053	1	0,0129361	-4,669161	8,49874	1,671406	13	0,3852874	0,0049844	63,96815
	34	61	38,42213	0,0130893	-0,0011689	1	0,0131414	-5,103064	8,496273	1,671389	13	0,3771597	0,0049566	63,96199
	35	62	31,25	0,0132692	-0,0012541	1	0,0133283	-5,399178	8,495509	1,671386	13	0,3694849	0,0049247	63,95617
	36	64	24,93351	0,0134896	-0,001332	1	0,0135552	-5,639063	8,493684	1,671397	13	0,3557242	0,004822	63,94451
	37	66	19,86229	0,0137399	-0,0013936	1	0,0138104	-5,79145	8,493775	1,671367	13	0,3916478	0,0054089	63,96438
	38	67	15,625	0,0139835	-0,0014551	1	0,014059	-5,94088	8,490619	1,671389	13	0,3546975	0,0049867	63,94451
	39	69	12,40079	0,0142937	-0,0014434	1	0,0143664	-5,76641	8,492394	1,671379	13	0,3482736	0,0050035	63,94186
	40	70	9,93114	0,0145641	-0,001422	1	0,0146334	-5,576501	8,491602	1,671387	13	0,3417231	0,0050006	63,94309
	41	72	7,944915	0,0148299	-0,001373	1	0,0148933	-5,289582	8,487913	1,671369	13	0,3354034	0,0049953	63,93126
	42	74	6,317385	0,0150567	-0,0013027	1	0,015113	-4,944818	8,489989	1,671376	13	0,3310205	0,0050027	63,93768
	43	76	5,008013	0,0152426	-0,0010861	1	0,0152812	-4,075746	8,490099	1,671374	13	0,3273747	0,0050027	63,92995
	44	79	3,945707	0,0154746	-0,0009984	1	0,0155067	-3,691516	8,491475	1,671378	13	0,3223603	0,0049988	63,93028
	45	81	3,158693	0,0155952	-0,0008542	1	0,0156186	-3,134986	8,493153	1,671378	13	0,3201602	0,0050004	63,93093
	46	85	2,504006	0,0156976	-0,000766	1	0,0157163	-2,793609	8,495466	1,671392	13	0,3080306	0,0048477	63,91831
	47	90	1,998082	0,0157593	-0,0006525	1	0,0157728	-2,370981	8,493662	1,671384	13	0,3215109	0,0050757	63,91688
	48	94	1,584686	0,0158346	-0,0005567	1	0,0158444	-2,01364	8,492803	1,671384	13	0,3183379	0,0050468	63,91658
	49	99	1,266892	0,0158817	-0,0004503	1	0,0158881	-1,624225	8,491608	1,671388	13	0,3157125	0,0050179	63,90215
	50	104	0,999041	0,0159368	-0,000388	1	0,0159415	-1,394727	8,488431	1,671385	13	0,3137677	0,0050031	63,88913
	51	110	0,7923428	0,0159539	-0,0003401	1	0,0159576	-1,221352	8,486028	1,671392	13	0,3137545	0,0050075	63,86849
	52	117	0,6334459	0,0160056	-0,0002636	1	0,0160078	-0,9436264	8,481927	1,671391	13	0,3124745	0,0050025	63,84966
	53	124	0,5040323	0,0160494	-0,0002357	1	0,0160511	-0,841498	8,479072	1,671389	13	0,3116273	0,0050023	63,85977
	54	134	0,400641	0,0159872	-0,0001869	1	0,0159883	-0,6699118	8,477463	1,671391	13	0,3126233	0,0049985	63,84136
	55	148	0,316723	0,0160376	-0,0001781	1	0,0160386	-0,6363056	8,475575	1,671388	13	0,3116956	0,0049993	63,84155
	56	162	0,2520161	0,0160484	-0,0001976	1	0,0160497	-0,7053552	8,474672	1,671389	13	0,311546	0,0050003	63,85548
	57	180	0,2003205	0,0161527	-0,000118	1	0,0161531	-0,4186102	8,472822	1,671389	13	0,3095164	0,0049997	63,83414
	58	206	0,1588983	0,0163496	-5,733816E-005	1	0,0163497	-0,200936	8,471702	1,671388	13	0,3060027	0,0050031	63,85429
	59	232	0,1260081	0,0160229	-0,0001626	1	0,0160237	-0,5815239	8,460423	1,671386	13	0,311873	0,0049974	63,78515
	60	270	0,1001603	0,0160938	-0,0001756	1	0,0160947	-0,6251412	8,447042	1,67139	13	0,3106181	0,0049993	63,69143
