EXPLAIN
TAG	EISPOT
TITLE	LABEL	Potentiostatic EIS	Test Identifier
DATE	LABEL	26/8/2026	Date
TIME	LABEL	17:31:37	Time
NOTES	NOTES	1	Notes...
	
PSTAT	PSTAT	REF3000-46189	Potentiostat
VDC	POTEN	1,66281E+000	F	Last Measured Potential (V)
FREQINIT	QUANT	1,00000E+005	Initial Freq. (Hz)
FREQFINAL	QUANT	1,00000E-001	Final Freq. (Hz)
PTSPERDEC	QUANT	1,00000E+001	Points/decade
VAC	QUANT	5,00000E+000	AC Voltage (mV rms)
AREA	QUANT	2,50000E+001	Sample Area (cm^2)
SPEED	SELECTOR	1	Optimize for:
DRIFTCOR	SELECTOR	0	Drift Correction
THD	SELECTOR	0	THD
ZGUESS	QUANT	2,00000E-002	Estimated Z (ohms)
EOC	QUANT	0,3747157	Open Circuit (V)
SEQUENCER	TOGGLE	TRUE	Run as Sequence
PSTATMODEL	IQUANT	6	Pstat Model
PSTATSECTION	LABEL	REF30K-46189	Pstat Section
PSTATSERIALNO	LABEL	46189	Pstat Serial Number
CTRLMODE	IQUANT	1	Control Mode
ELECTROMETER	IQUANT	0	RE=0 or CS=1
IESTAB	IQUANT	0	I/E Stability
CASPEED	IQUANT	3	Control Amp Speed
CONVENTION	IQUANT	1	Current Convention
ICHRANGE	IQUANT	2	Ich Range
ICHRANGEMODE	TOGGLE	F	Ich Auto Range
ICHOFFSETENABLE	TOGGLE	T	Ich Offset Enable
ICHOFFSET	QUANT	0	Ich Offset (V)
ICHFILTER	IQUANT	3	Ich Filter
VCHRANGE	IQUANT	2	Vch Range
VCHRANGEMODE	TOGGLE	F	Vch Auto Range
VCHOFFSETENABLE	TOGGLE	T	Vch Offset Enable
VCHOFFSET	QUANT	0	Vch Offset (V)
VCHFILTER	IQUANT	3	Vch Filter
ACHRANGE	IQUANT	2	Ach Range
ACHOFFSETENABLE	TOGGLE	F	Ach Offset Enable
ACHOFFSET	QUANT	0	Ach Offset (V)
ACHFILTER	IQUANT	1	Ach Filter
IERANGELOWERLIMIT	IQUANT	13	I/E Range Lower Limit
IERANGEMODE	TOGGLE	F	I/E AutoRange
IERANGE	IQUANT	13	I/E Range
POSFEEDENABLE	TOGGLE	F	Positive Feedback IR Comp
POSFEEDRESISTANCE	QUANT	0	Positive Feedback Resistance (ohm)
ACHSELECT	IQUANT	4	Ach Select
SENSECABLEID	IQUANT	14	Sense Cable ID
PWRCABLEID	IQUANT	8	Power Cable ID
DCCALDATE	LABEL	10/1/2025	DC Calibration Date
ACCALDATE	LABEL	10/1/2025	AC Calibration Date
THERMOSELECT	IQUANT	1	Thermo Select
FRAMEWORKVERSION	LABEL	7.10.1	Framework Version
INSTRUMENTVERSION	LABEL	4.80	Instrument Version
COMMVERSION	LABEL	5.10	Communications Version
CPUPLDVERSION	LABEL	6.00	CPU PLD Version
CTRLPLDVERSION	LABEL	3.21	CTRL PLD Version
PSTATPLDVERSION	LABEL	0.00	PSTAT PLD Version
BOOSTERDCCALDATE	LABEL	10/1/2025	Booster DC Calibration Date
ZCURVE	TABLE
	Pt	Time	Freq	Zreal	Zimag	Zsig	Zmod	Zphz	Idc	Vdc	IERange	Imod	Vmod	Temp
	#	s	Hz	ohm	ohm	V	ohm	°	A	V	#	A	V	°C
	0	4	100078,1	0,0135959	0,0090391	1	0,0163265	33,61742	8,512084	1,660261	13	0,3075463	0,0049999	63,57693
	1	6	79453,13	0,0133483	0,0073663	1	0,015246	28,89206	8,512863	1,66027	13	0,414619	0,0063004	63,56146
	2	7	63140,62	0,0131406	0,0060189	1	0,0144534	24,60966	8,508655	1,660261	13	0,4301251	0,0061998	63,56
	3	9	50203,12	0,0129428	0,0049129	1	0,0138439	20,78605	8,511113	1,66027	13	0,4413496	0,0060964	63,56329
	4	11	39890,62	0,0127888	0,0040034	1	0,0134008	17,38201	8,512355	1,660263	13	0,4606398	0,0061623	63,55898
	5	12	31640,63	0,0126538	0,0032563	1	0,0130661	14,43136	8,5135	1,660266	13	0,4656171	0,0060762	63,5547
	6	14	25171,88	0,0125504	0,0026523	1	0,0128276	11,93267	8,511364	1,660264	13	0,468031	0,0059984	63,55527
	7	16	20015,62	0,0124617	0,0021553	1	0,0126468	9,81234	8,512044	1,660267	13	0,4681478	0,005917	63,55528
	8	17	15890,62	0,012393	0,0017451	1	0,0125153	8,015155	8,509512	1,660258	13	0,4652296	0,0058202	63,5535
	9	19	12609,38	0,0123374	0,0014045	1	0,0124171	6,494711	8,5113	1,660258	13	0,4588065	0,0056956	63,56334
	10	21	10078,13	0,0122964	0,0011399	1	0,0123491	5,296418	8,511805	1,660262	13	0,4498891	0,0055548	63,55601
	11	22	8015,625	0,0122638	0,00091	1	0,0122975	4,243609	8,510584	1,660254	13	0,441359	0,005427	63,55754
	12	24	6328,125	0,0122345	0,000722	1	0,0122558	3,377069	8,511888	1,660265	13	0,4346	0,005326	63,56152
	13	26	5015,625	0,0122169	0,000561	1	0,0122298	2,62926	8,512075	1,660262	13	0,4280212	0,0052344	63,56848
	14	27	3984,375	0,0122002	0,0004378	1	0,0122081	2,055166	8,512624	1,660258	13	0,422413	0,0051567	63,57544
	15	29	3170,956	0,0121959	0,0003243	1	0,0122002	1,523161	8,508336	1,660252	13	0,418531	0,0051061	63,56793
	16	30	2527,573	0,0121811	0,0002307	1	0,0121833	1,084941	8,511244	1,660251	13	0,4154558	0,0050616	63,5757
	17	32	1976,103	0,0121811	0,0001358	1	0,0121819	0,6387358	8,50874	1,660244	13	0,4141855	0,0050455	63,56692
	18	34	1577,524	0,0121938	6,435625E-005	1	0,012194	0,3023908	8,507289	1,660251	13	0,4120831	0,0050249	63,56146
	19	35	1265,625	0,0122056	-1,162044E-005	1	0,0122056	-0,0545489	8,506622	1,660265	13	0,4109799	0,0050162	63,56271
	20	37	998,264	0,0122259	-7,752562E-005	1	0,0122262	-0,3633129	8,506425	1,660251	13	0,4097355	0,0050095	63,56627
	21	38	796,875	0,0122467	-0,0001428	1	0,0122475	-0,668021	8,507653	1,660261	13	0,4086485	0,0050049	63,56152
	22	40	627,7902	0,0122769	-0,0002132	1	0,0122787	-0,994899	8,505946	1,660265	13	0,4070248	0,0049977	63,55275
	23	41	505,5147	0,0123092	-0,000267	1	0,0123121	-1,242752	8,504981	1,660251	13	0,399673	0,0049589	63,56853
	24	43	397,9953	0,0123542	-0,0003308	1	0,0123587	-1,533955	8,5036	1,66024	13	0,4060822	0,0050413	63,56556
	25	45	315,5048	0,012402	-0,0003934	1	0,0124083	-1,816696	8,504701	1,660256	13	0,4022694	0,0050049	63,56198
	26	46	252,4038	0,0124588	-0,0004587	1	0,0124672	-2,108336	8,506166	1,66026	13	0,4003713	0,0049999	63,55957
	27	48	198,6229	0,0125221	-0,0005313	1	0,0125334	-2,429454	8,505566	1,66024	13	0,3981256	0,0049949	63,57544
	28	49	158,3615	0,0125965	-0,0006071	1	0,0126111	-2,759366	8,505573	1,660245	13	0,3959613	0,0049967	63,56889
	29	51	125,558	0,0126825	-0,0006883	1	0,0127012	-3,106434	8,504067	1,660255	13	0,3930447	0,0049941	63,56755
	30	52	100,4464	0,0127795	-0,0007681	1	0,0128026	-3,439539	8,505589	1,660249	13	0,3901859	0,0049966	63,57111
	31	54	79,00281	0,0128984	-0,0008638	1	0,0129273	-3,831178	8,506735	1,660253	13	0,386342	0,0049951	63,56102
	32	56	63,3446	0,0130249	-0,000954	1	0,0130598	-4,189099	8,504186	1,660256	13	0,3821395	0,0049912	63,54467
	33	57	50,22321	0,013177	-0,0010494	1	0,0132187	-4,553136	8,504373	1,660259	13	0,3772599	0,0049872	63,55797
	34	59	38,42213	0,013379	-0,0011634	1	0,0134295	-4,969677	8,503395	1,660246	13	0,3692554	0,0049591	63,55202
	35	61	31,25	0,0135558	-0,0012391	1	0,0136124	-5,222882	8,503818	1,660268	13	0,3620723	0,0049288	63,55966
	36	62	24,93351	0,0137738	-0,0013093	1	0,0138359	-5,430171	8,498718	1,660249	13	0,3491808	0,0048313	63,55208
	37	64	19,86229	0,0139904	-0,0013582	1	0,0140562	-5,54475	8,499115	1,660233	13	0,3824438	0,0053758	63,54134
	38	65	15,625	0,0142938	-0,0014276	1	0,0143649	-5,703706	8,498351	1,660262	13	0,3482474	0,0050026	63,54097
	39	67	12,40079	0,0145528	-0,0014302	1	0,0146229	-5,612696	8,495044	1,660257	13	0,341895	0,0049995	63,5514
	40	68	9,93114	0,0148177	-0,0013855	1	0,0148823	-5,34186	8,498052	1,660249	13	0,3358701	0,0049985	63,55366
	41	70	7,944915	0,0150804	-0,0013408	1	0,0151399	-5,080875	8,496958	1,660236	13	0,3297142	0,0049918	63,54568
	42	72	6,317385	0,0153319	-0,0012567	1	0,0153833	-4,685983	8,495453	1,660254	13	0,3256046	0,0050089	63,54778
	43	74	5,008013	0,015469	-0,0011488	1	0,0155116	-4,247311	8,496128	1,660248	13	0,322052	0,0049955	63,54517
	44	76	3,945707	0,0156937	-0,0009844	1	0,0157246	-3,589197	8,498094	1,660239	13	0,3182351	0,0050041	63,55587
	45	79	3,158693	0,0158031	-0,0008539	1	0,0158262	-3,09305	8,49742	1,660247	13	0,3161647	0,0050037	63,55252
	46	82	2,504006	0,0159197	-0,0007289	1	0,0159363	-2,621402	8,496031	1,660248	13	0,3036815	0,0048462	63,56248
	47	86	1,998082	0,0160047	-0,0006296	1	0,0160171	-2,252894	8,498175	1,660251	13	0,3171829	0,0050849	63,56035
	48	91	1,584686	0,0160534	-0,0005679	1	0,0160635	-2,025942	8,499075	1,66025	13	0,3137164	0,0050423	63,56432
	49	97	1,266892	0,016115	-0,0004835	1	0,0161223	-1,718485	8,496519	1,660257	13	0,3106932	0,005011	63,5679
	50	103	0,999041	0,0161376	-0,0004027	1	0,0161426	-1,429513	8,494447	1,660251	13	0,3103771	0,0050115	63,55952
	51	108	0,7923428	0,0162128	-0,0003385	1	0,0162163	-1,196066	8,486789	1,660256	13	0,3083156	0,0050005	63,54528
	52	116	0,6334459	0,0162277	-0,0002836	1	0,0162301	-1,001315	8,485142	1,660253	13	0,3080312	0,0049999	63,52791
	53	124	0,5040323	0,0162479	-0,0002519	1	0,0162499	-0,8882091	8,480214	1,660253	13	0,307781	0,0050017	63,51705
	54	135	0,400641	0,016293	-0,0002351	1	0,0162947	-0,8266425	8,479333	1,660258	13	0,3069111	0,0050012	63,51789
	55	147	0,316723	0,0162782	-0,0001715	1	0,0162791	-0,6036155	8,479508	1,660256	13	0,3072349	0,0050016	63,51971
	56	164	0,2520161	0,0163135	-0,0001625	1	0,0163143	-0,5708193	8,477526	1,660256	13	0,3063581	0,0049981	63,50262
	57	186	0,2003205	0,0162788	-0,0001619	1	0,0162796	-0,569971	8,472467	1,660257	13	0,3073575	0,0050037	63,47433
	58	207	0,1588983	0,0163082	-0,0001408	1	0,0163088	-0,4947774	8,466109	1,660254	13	0,3064457	0,0049978	63,46708
	59	233	0,1260081	0,0163237	-0,0001471	1	0,0163244	-0,5164757	8,462729	1,660256	13	0,3062623	0,0049996	63,47215
	60	263	0,1001603	0,0163563	-0,0001284	1	0,0163568	-0,4496807	8,463097	1,660256	13	0,3057248	0,0050007	63,48037
