EXPLAIN
TAG	EISPOT
TITLE	LABEL	Potentiostatic EIS	Test Identifier
DATE	LABEL	20/8/2026	Date
TIME	LABEL	13:14:12	Time
NOTES	NOTES	1	Notes...
	
PSTAT	PSTAT	REF3000-46189	Potentiostat
VDC	POTEN	1,80998E+000	F	Last Measured Potential (V)
FREQINIT	QUANT	1,00000E+005	Initial Freq. (Hz)
FREQFINAL	QUANT	1,00000E-001	Final Freq. (Hz)
PTSPERDEC	QUANT	1,00000E+001	Points/decade
VAC	QUANT	5,00000E+000	AC Voltage (mV rms)
AREA	QUANT	2,50000E+001	Sample Area (cm^2)
SPEED	SELECTOR	1	Optimize for:
DRIFTCOR	SELECTOR	0	Drift Correction
THD	SELECTOR	0	THD
ZGUESS	QUANT	2,00000E-002	Estimated Z (ohms)
EOC	QUANT	0,7679437	Open Circuit (V)
SEQUENCER	TOGGLE	TRUE	Run as Sequence
PSTATMODEL	IQUANT	6	Pstat Model
PSTATSECTION	LABEL	REF30K-46189	Pstat Section
PSTATSERIALNO	LABEL	46189	Pstat Serial Number
CTRLMODE	IQUANT	1	Control Mode
ELECTROMETER	IQUANT	0	RE=0 or CS=1
IESTAB	IQUANT	0	I/E Stability
CASPEED	IQUANT	3	Control Amp Speed
CONVENTION	IQUANT	1	Current Convention
ICHRANGE	IQUANT	2	Ich Range
ICHRANGEMODE	TOGGLE	F	Ich Auto Range
ICHOFFSETENABLE	TOGGLE	T	Ich Offset Enable
ICHOFFSET	QUANT	0	Ich Offset (V)
ICHFILTER	IQUANT	3	Ich Filter
VCHRANGE	IQUANT	2	Vch Range
VCHRANGEMODE	TOGGLE	F	Vch Auto Range
VCHOFFSETENABLE	TOGGLE	T	Vch Offset Enable
VCHOFFSET	QUANT	0	Vch Offset (V)
VCHFILTER	IQUANT	3	Vch Filter
ACHRANGE	IQUANT	2	Ach Range
ACHOFFSETENABLE	TOGGLE	F	Ach Offset Enable
ACHOFFSET	QUANT	0	Ach Offset (V)
ACHFILTER	IQUANT	1	Ach Filter
IERANGELOWERLIMIT	IQUANT	13	I/E Range Lower Limit
IERANGEMODE	TOGGLE	F	I/E AutoRange
IERANGE	IQUANT	13	I/E Range
POSFEEDENABLE	TOGGLE	F	Positive Feedback IR Comp
POSFEEDRESISTANCE	QUANT	0	Positive Feedback Resistance (ohm)
ACHSELECT	IQUANT	4	Ach Select
SENSECABLEID	IQUANT	14	Sense Cable ID
PWRCABLEID	IQUANT	8	Power Cable ID
DCCALDATE	LABEL	10/1/2025	DC Calibration Date
ACCALDATE	LABEL	10/1/2025	AC Calibration Date
THERMOSELECT	IQUANT	1	Thermo Select
FRAMEWORKVERSION	LABEL	7.10.1	Framework Version
INSTRUMENTVERSION	LABEL	4.80	Instrument Version
COMMVERSION	LABEL	5.10	Communications Version
CPUPLDVERSION	LABEL	6.00	CPU PLD Version
CTRLPLDVERSION	LABEL	3.21	CTRL PLD Version
PSTATPLDVERSION	LABEL	0.00	PSTAT PLD Version
BOOSTERDCCALDATE	LABEL	10/1/2025	Booster DC Calibration Date
ZCURVE	TABLE
	Pt	Time	Freq	Zreal	Zimag	Zsig	Zmod	Zphz	Idc	Vdc	IERange	Imod	Vmod	Temp
	#	s	Hz	ohm	ohm	V	ohm	°	A	V	#	A	V	°C
	0	4	100078,1	0,0132632	0,0068051	1	0,0149071	27,16138	17,37332	1,806926	13	0,3369661	0,0050019	63,82172
	1	5	79453,13	0,0130106	0,0055876	1	0,0141597	23,24192	17,36602	1,806919	13	0,4619747	0,0065199	63,82148
	2	7	63140,62	0,0127959	0,0045926	1	0,0135951	19,74351	17,36475	1,806918	13	0,4686386	0,0063538	63,82591
	3	8	50203,12	0,0126073	0,0037778	1	0,0131611	16,68097	17,36199	1,806912	13	0,4723877	0,0062033	63,82743
	4	10	39890,62	0,0124533	0,0030954	1	0,0128322	13,95862	17,35887	1,80691	13	0,4838817	0,0061986	63,83764
	5	12	31640,63	0,0123285	0,0025316	1	0,0125857	11,60424	17,35976	1,806901	13	0,4833067	0,0060751	63,84516
	6	14	25171,88	0,0122275	0,0020719	1	0,0124018	9,61725	17,35924	1,806905	13	0,4800535	0,0059483	63,86005
	7	15	20015,62	0,0121472	0,0016919	1	0,0122645	7,929137	17,36109	1,806909	13	0,475988	0,0058343	63,85365
	8	17	15890,62	0,0120799	0,0013794	1	0,0121584	6,514305	17,36209	1,806904	13	0,4687963	0,0056976	63,87069
	9	19	12609,38	0,0120245	0,0011138	1	0,012076	5,292269	17,36156	1,806898	13	0,4618247	0,0055756	63,87926
	10	20	10078,13	0,0119858	0,0009111	1	0,0120204	4,34703	17,36528	1,806902	13	0,4507307	0,0054171	63,89451
	11	22	8015,625	0,0119534	0,0007349	1	0,011976	3,517952	17,36406	1,806898	13	0,443718	0,0053134	63,887
	12	24	6328,125	0,0119265	0,000585	1	0,0119409	2,808282	17,36392	1,806897	13	0,4384283	0,0052349	63,90646
	13	25	5015,625	0,011905	0,0004637	1	0,011914	2,23055	17,36636	1,806906	13	0,4331194	0,00516	63,91056
	14	27	3984,375	0,0118888	0,0003577	1	0,0118941	1,723582	17,36645	1,806908	13	0,42953	0,0051088	63,9032
	15	28	3170,956	0,0118734	0,0002729	1	0,0118766	1,316645	17,36491	1,8069	13	0,4266576	0,0050671	63,92152
	16	30	2527,573	0,0118662	0,000193	1	0,0118678	0,9319387	17,36669	1,806894	13	0,424994	0,0050437	63,91861
	17	32	1976,103	0,0118629	0,0001184	1	0,0118635	0,5718836	17,36481	1,806909	13	0,4238634	0,0050285	63,93398
	18	33	1577,524	0,0118674	5,72092E-005	1	0,0118675	0,276204	17,36195	1,806911	13	0,4228355	0,005018	63,915
	19	35	1265,625	0,0118754	1,436627E-006	1	0,0118754	0,0069313	17,3634	1,806914	13	0,4217334	0,0050083	63,9231
	20	37	998,264	0,0118852	-5,529603E-005	1	0,0118853	-0,2665671	17,35916	1,806894	13	0,4210929	0,0050048	63,92393
	21	38	796,875	0,011913	-0,0001049	1	0,0119134	-0,5043551	17,35394	1,806901	13	0,420059	0,0050043	63,92804
	22	40	627,7902	0,011935	-0,0001529	1	0,0119359	-0,7341496	17,35498	1,806914	13	0,418655	0,004997	63,92762
	23	41	505,5147	0,011963	-0,0002043	1	0,0119647	-0,978234	17,35239	1,806892	13	0,4113678	0,00496	63,92351
	24	43	397,9953	0,0120006	-0,0002514	1	0,0120032	-1,200225	17,35305	1,806909	13	0,4179592	0,0050395	63,92144
	25	44	315,5048	0,0120393	-0,0002995	1	0,012043	-1,425099	17,35273	1,806908	13	0,4144983	0,0050053	63,93021
	26	46	252,4038	0,0120846	-0,0003437	1	0,0120895	-1,629156	17,34794	1,806886	13	0,4128679	0,0049997	63,92339
	27	47	198,6229	0,0121397	-0,0003978	1	0,0121462	-1,877007	17,34935	1,806915	13	0,4108318	0,0049951	63,9274
	28	49	158,3615	0,0121988	-0,0004478	1	0,012207	-2,10243	17,35146	1,8069	13	0,4089613	0,0049953	63,92516
	29	51	125,558	0,01227	-0,0005015	1	0,0122802	-2,340511	17,34774	1,806893	13	0,4067211	0,0049966	63,9167
	30	52	100,4464	0,0123455	-0,000554	1	0,0123579	-2,569263	17,3487	1,806906	13	0,4040753	0,0049948	63,91278
	31	54	79,00281	0,0124429	-0,0006083	1	0,0124578	-2,799032	17,34742	1,806903	13	0,4008654	0,0049947	63,9164
	32	55	63,3446	0,0125425	-0,0006572	1	0,0125597	-2,999358	17,3466	1,806898	13	0,3974974	0,0049929	63,92482
	33	57	50,22321	0,0126617	-0,0007004	1	0,0126811	-3,166106	17,34538	1,806875	13	0,3929578	0,0049834	63,9212
	34	59	38,42213	0,0128153	-0,0007431	1	0,0128368	-3,318699	17,34484	1,806884	13	0,3860843	0,0049563	63,9233
	35	60	31,25	0,012939	-0,0007567	1	0,0129611	-3,346829	17,34778	1,806887	13	0,380084	0,0049264	63,91926
	36	62	24,93351	0,013081	-0,0007519	1	0,0131026	-3,289567	17,35137	1,806911	13	0,3678961	0,0048205	63,92058
	37	64	19,86229	0,0132496	-0,0007519	1	0,013271	-3,24801	17,34931	1,806909	13	0,4069869	0,0054012	63,92591
	38	65	15,625	0,0134047	-0,0007006	1	0,013423	-2,991714	17,35047	1,806881	13	0,3724786	0,0049998	63,9182
	39	67	12,40079	0,0134711	-0,0006832	1	0,0134884	-2,903399	17,34557	1,806881	13	0,3706961	0,0050001	63,93119
	40	68	9,93114	0,0136467	-0,0006054	1	0,0136602	-2,540018	17,34928	1,8069	13	0,365876	0,0049979	63,92305
	41	70	7,944915	0,0136782	-0,0005351	1	0,0136887	-2,240115	17,34653	1,806893	13	0,3651156	0,004998	63,92385
	42	72	6,317385	0,0137366	-0,0004988	1	0,0137456	-2,079542	17,3496	1,806887	13	0,3639521	0,0050028	63,93061
	43	74	5,008013	0,0136771	-0,0003925	1	0,0136827	-1,643946	17,35587	1,806885	13	0,3650181	0,0049944	63,91956
	44	76	3,945707	0,0138388	-0,0003172	1	0,0138425	-1,312897	17,34355	1,80689	13	0,3615204	0,0050043	63,92261
	45	80	3,158693	0,0138858	-0,0002976	1	0,013889	-1,227866	17,3442	1,806886	13	0,3596324	0,0049949	63,9145
	46	83	2,504006	0,0139197	-0,0002708	1	0,0139224	-1,114488	17,34468	1,806886	13	0,3477974	0,0048487	63,91899
	47	87	1,998082	0,0139184	-0,0002365	1	0,0139204	-0,973382	17,34319	1,806887	13	0,3650618	0,0050864	63,91296
	48	93	1,584686	0,0139715	-0,0002119	1	0,0139731	-0,8689445	17,33816	1,806892	13	0,3604982	0,0050402	63,89737
	49	98	1,266892	0,0140008	-0,0001838	1	0,014002	-0,752084	17,33227	1,806891	13	0,3581761	0,0050171	63,8812
	50	106	0,999041	0,0139979	-0,0001628	1	0,0139988	-0,6662534	17,32717	1,806888	13	0,3569832	0,0049985	63,87365
	51	113	0,7923428	0,0140501	-0,0001708	1	0,0140512	-0,696317	17,3252	1,806889	13	0,356548	0,0050107	63,85687
	52	120	0,6334459	0,0140205	-0,0001359	1	0,0140212	-0,5554591	17,31647	1,806893	13	0,3568772	0,0050043	63,8154
	53	130	0,5040323	0,0140519	-0,0001396	1	0,0140526	-0,5690783	17,30372	1,80689	13	0,3556227	0,0049977	63,78424
	54	139	0,400641	0,0140587	-0,0000984	1	0,014059	-0,4011968	17,30143	1,80689	13	0,3559463	0,0050044	63,80214
	55	153	0,316723	0,0140511	-0,0001116	1	0,0140516	-0,4549908	17,30365	1,806893	13	0,3556098	0,004997	63,83146
	56	171	0,2520161	0,0141174	-0,0001153	1	0,0141179	-0,4680742	17,30423	1,806893	13	0,3540823	0,004999	63,84895
	57	192	0,2003205	0,0141246	-0,0001053	1	0,014125	-0,4272251	17,29985	1,806894	13	0,3540834	0,0050015	63,79653
	58	214	0,1588983	0,0141134	-8,988773E-005	1	0,0141137	-0,3649088	17,28465	1,806893	13	0,3543309	0,005001	63,7282
	59	246	0,1260081	0,0141619	-0,0001012	1	0,0141623	-0,409361	17,26833	1,806895	13	0,3531102	0,0050009	63,70779
	60	284	0,1001603	0,01412	-6,925427E-005	1	0,0141202	-0,2810155	17,26133	1,806891	13	0,3541315	0,0050004	63,7065
