EXPLAIN
TAG	EISPOT
TITLE	LABEL	Potentiostatic EIS	Test Identifier
DATE	LABEL	20/8/2026	Date
TIME	LABEL	12:57:13	Time
NOTES	NOTES	1	Notes...
	
PSTAT	PSTAT	REF3000-46189	Potentiostat
VDC	POTEN	1,52322E+000	F	Last Measured Potential (V)
FREQINIT	QUANT	1,00000E+005	Initial Freq. (Hz)
FREQFINAL	QUANT	1,00000E-001	Final Freq. (Hz)
PTSPERDEC	QUANT	1,00000E+001	Points/decade
VAC	QUANT	5,00000E+000	AC Voltage (mV rms)
AREA	QUANT	2,50000E+001	Sample Area (cm^2)
SPEED	SELECTOR	1	Optimize for:
DRIFTCOR	SELECTOR	0	Drift Correction
THD	SELECTOR	0	THD
ZGUESS	QUANT	2,00000E-002	Estimated Z (ohms)
EOC	QUANT	0,7679437	Open Circuit (V)
SEQUENCER	TOGGLE	TRUE	Run as Sequence
PSTATMODEL	IQUANT	6	Pstat Model
PSTATSECTION	LABEL	REF30K-46189	Pstat Section
PSTATSERIALNO	LABEL	46189	Pstat Serial Number
CTRLMODE	IQUANT	1	Control Mode
ELECTROMETER	IQUANT	0	RE=0 or CS=1
IESTAB	IQUANT	0	I/E Stability
CASPEED	IQUANT	3	Control Amp Speed
CONVENTION	IQUANT	1	Current Convention
ICHRANGE	IQUANT	2	Ich Range
ICHRANGEMODE	TOGGLE	F	Ich Auto Range
ICHOFFSETENABLE	TOGGLE	T	Ich Offset Enable
ICHOFFSET	QUANT	0	Ich Offset (V)
ICHFILTER	IQUANT	3	Ich Filter
VCHRANGE	IQUANT	2	Vch Range
VCHRANGEMODE	TOGGLE	F	Vch Auto Range
VCHOFFSETENABLE	TOGGLE	T	Vch Offset Enable
VCHOFFSET	QUANT	0	Vch Offset (V)
VCHFILTER	IQUANT	3	Vch Filter
ACHRANGE	IQUANT	2	Ach Range
ACHOFFSETENABLE	TOGGLE	F	Ach Offset Enable
ACHOFFSET	QUANT	0	Ach Offset (V)
ACHFILTER	IQUANT	1	Ach Filter
IERANGELOWERLIMIT	IQUANT	13	I/E Range Lower Limit
IERANGEMODE	TOGGLE	F	I/E AutoRange
IERANGE	IQUANT	13	I/E Range
POSFEEDENABLE	TOGGLE	F	Positive Feedback IR Comp
POSFEEDRESISTANCE	QUANT	0	Positive Feedback Resistance (ohm)
ACHSELECT	IQUANT	4	Ach Select
SENSECABLEID	IQUANT	14	Sense Cable ID
PWRCABLEID	IQUANT	8	Power Cable ID
DCCALDATE	LABEL	10/1/2025	DC Calibration Date
ACCALDATE	LABEL	10/1/2025	AC Calibration Date
THERMOSELECT	IQUANT	1	Thermo Select
FRAMEWORKVERSION	LABEL	7.10.1	Framework Version
INSTRUMENTVERSION	LABEL	4.80	Instrument Version
COMMVERSION	LABEL	5.10	Communications Version
CPUPLDVERSION	LABEL	6.00	CPU PLD Version
CTRLPLDVERSION	LABEL	3.21	CTRL PLD Version
PSTATPLDVERSION	LABEL	0.00	PSTAT PLD Version
BOOSTERDCCALDATE	LABEL	10/1/2025	Booster DC Calibration Date
ZCURVE	TABLE
	Pt	Time	Freq	Zreal	Zimag	Zsig	Zmod	Zphz	Idc	Vdc	IERange	Imod	Vmod	Temp
	#	s	Hz	ohm	ohm	V	ohm	°	A	V	#	A	V	°C
	0	4	100078,1	0,0133059	0,006893	1	0,0149854	27,38591	1,297913	1,521324	13	0,334776	0,0049955	64,47818
	1	6	79453,13	0,0130649	0,0056582	1	0,0142375	23,41673	1,298848	1,521319	13	0,4589816	0,0065132	64,48344
	2	8	63140,62	0,0128785	0,0046457	1	0,0136908	19,83599	1,270341	1,52132	13	0,4665814	0,0063704	64,47795
	3	10	50203,12	0,0126932	0,0038167	1	0,0132546	16,73523	1,278135	1,521317	13	0,4733649	0,0062603	64,47701
	4	12	39890,62	0,0125387	0,0031243	1	0,0129221	13,99167	1,283961	1,521316	13	0,4774694	0,0061593	64,47083
	5	14	31640,63	0,0124121	0,0025523	1	0,0126719	11,61991	1,286292	1,521326	13	0,4770541	0,0060376	64,47046
	6	17	25171,88	0,012312	0,0020855	1	0,0124873	9,61383	1,286084	1,521313	13	0,4721224	0,0058904	64,47126
	7	19	20015,62	0,0122234	0,0016959	1	0,0123405	7,898682	1,301822	1,521327	13	0,4672772	0,005763	64,47281
	8	20	15890,62	0,012163	0,001375	1	0,0122405	6,449925	1,293177	1,521312	13	0,4591883	0,0056185	64,46701
	9	22	12609,38	0,0121198	0,0011053	1	0,0121701	5,21103	1,284768	1,521313	13	0,4490961	0,0054642	64,46408
	10	24	10078,13	0,0120916	0,0008919	1	0,0121245	4,218429	1,270457	1,521316	13	0,439489	0,0053277	64,46923
	11	25	8015,625	0,0120576	0,0007095	1	0,0120784	3,36772	1,281093	1,521321	13	0,4346128	0,0052489	64,46979
	12	27	6328,125	0,0120256	0,0005532	1	0,0120383	2,633674	1,290344	1,521316	13	0,4299512	0,0051755	64,47295
	13	29	5015,625	0,0120102	0,0004238	1	0,0120177	2,020992	1,290237	1,521324	13	0,4257371	0,0051162	64,48054
	14	30	3984,375	0,0120006	0,0003107	1	0,0120046	1,48284	1,283994	1,521325	13	0,4225787	0,0050728	64,46908
	15	32	3170,956	0,0119923	0,0002113	1	0,0119942	1,009607	1,295648	1,52132	13	0,4210708	0,0050503	64,48058
	16	34	2527,573	0,0119883	0,0001251	1	0,0119889	0,5980341	1,290357	1,521321	13	0,4193434	0,0050274	64,47493
	17	35	1976,103	0,0119875	3,496348E-005	1	0,0119875	0,1671121	1,298847	1,521327	13	0,4186191	0,0050182	64,48368
	18	37	1577,524	0,0120035	-4,062955E-005	1	0,0120036	-0,1939344	1,294628	1,521325	13	0,4176432	0,0050132	64,49074
	19	39	1265,625	0,0120165	-0,0001116	1	0,012017	-0,5322039	1,292806	1,521326	13	0,4164438	0,0050044	64,48721
	20	41	998,264	0,0120526	-0,0001867	1	0,012054	-0,8875554	1,279153	1,52132	13	0,4154505	0,0050078	64,48247
	21	42	796,875	0,0120772	-0,0002611	1	0,01208	-1,238486	1,287991	1,521308	13	0,4139202	0,0050002	64,49548
	22	44	627,7902	0,0121182	-0,0003442	1	0,0121231	-1,62684	1,2878	1,521309	13	0,4126945	0,0050031	64,49843
	23	45	505,5147	0,0121567	-0,0004184	1	0,0121639	-1,971187	1,286563	1,521336	13	0,4047683	0,0049616	64,50211
	24	47	397,9953	0,012205	-0,0005059	1	0,0122155	-2,37356	1,291646	1,521314	13	0,4110205	0,0050435	64,50385
	25	48	315,5048	0,012265	-0,0006027	1	0,0122798	-2,813466	1,292085	1,521321	13	0,4067093	0,0050078	64,50371
	26	50	252,4038	0,0123234	-0,0007033	1	0,0123434	-3,26623	1,30317	1,521316	13	0,4041437	0,0049969	64,50254
	27	51	198,6229	0,0124072	-0,0008261	1	0,0124347	-3,80921	1,299578	1,521317	13	0,4013335	0,0049955	64,50478
	28	53	158,3615	0,0125045	-0,0009596	1	0,0125412	-4,388131	1,289337	1,521321	13	0,3980947	0,0049957	64,51031
	29	55	125,558	0,0126163	-0,0011169	1	0,0126656	-5,059127	1,283824	1,521311	13	0,394165	0,0049943	64,52886
	30	56	100,4464	0,0127388	-0,0012836	1	0,0128034	-5,753879	1,290088	1,521302	13	0,3901879	0,004997	64,5257
	31	58	79,00281	0,0129014	-0,0014944	1	0,0129876	-6,60722	1,285905	1,52132	13	0,3844741	0,0049942	64,53493
	32	59	63,3446	0,0130776	-0,0017095	1	0,0131889	-7,447518	1,286675	1,521308	13	0,3785493	0,0049931	64,52891
	33	61	50,22321	0,0132958	-0,0019638	1	0,01344	-8,40202	1,287709	1,521323	13	0,3707567	0,0049833	64,53297
	34	63	38,42213	0,0136067	-0,0022774	1	0,013796	-9,50169	1,292945	1,52131	13	0,3594581	0,0049593	64,53061
	35	64	31,25	0,0138698	-0,0025313	1	0,0140989	-10,34289	1,314929	1,521316	13	0,3492003	0,0049235	64,52499
	36	66	24,93351	0,014242	-0,0028161	1	0,0145178	-11,18502	1,310596	1,521324	13	0,3321396	0,004822	64,52669
	37	67	19,86229	0,014678	-0,003152	1	0,0150126	-12,11975	1,294044	1,521301	13	0,3593149	0,0053943	64,53417
	38	69	15,625	0,0151601	-0,0034791	1	0,0155542	-12,92507	1,27702	1,5213	13	0,3215023	0,0050007	64,53054
	39	70	12,40079	0,0156944	-0,0038015	1	0,0161483	-13,61595	1,279587	1,521302	13	0,3097828	0,0050025	64,53728
	40	72	9,93114	0,0161303	-0,0041188	1	0,0166478	-14,32405	1,28458	1,521298	13	0,3004248	0,0050014	64,52732
	41	74	7,944915	0,0166405	-0,004492	1	0,0172361	-15,10674	1,282022	1,521293	13	0,2901009	0,0050002	64,53986
	42	75	6,317385	0,0172162	-0,0049552	1	0,0179152	-16,05694	1,279222	1,521306	13	0,2790169	0,0049986	64,53546
	43	78	5,008013	0,01788	-0,0054628	1	0,0186959	-16,98926	1,288828	1,521302	13	0,267496	0,0050011	64,52549
	44	81	3,945707	0,0186154	-0,0060731	1	0,019581	-18,0685	1,309364	1,521294	13	0,2553667	0,0050003	64,51804
	45	84	3,158693	0,0195172	-0,0067854	1	0,0206631	-19,17056	1,288322	1,521307	13	0,2419603	0,0049996	64,51105
	46	87	2,504006	0,0207019	-0,0074619	1	0,0220056	-19,82142	1,287547	1,521312	13	0,2199278	0,0048462	64,52009
	47	90	1,998082	0,0221416	-0,0080244	1	0,0235508	-19,92111	1,289411	1,521308	13	0,2159677	0,0050908	64,51537
	48	95	1,584686	0,0237209	-0,0083896	1	0,0251608	-19,47768	1,304263	1,521308	13	0,2001261	0,0050383	64,51884
	49	101	1,266892	0,0258078	-0,0085593	1	0,0271901	-18,34836	1,282659	1,521309	13	0,1844436	0,0050169	64,52975
	50	107	0,999041	0,027565	-0,0083083	1	0,0287899	-16,77317	1,282272	1,521309	13	0,173829	0,0050057	64,53664
	51	114	0,7923428	0,0290951	-0,0075064	1	0,0300478	-14,46665	1,296481	1,521311	13	0,1665875	0,0050063	64,52563
	52	121	0,6334459	0,0308217	-0,0071838	1	0,0316478	-13,11998	1,274013	1,521307	13	0,1579595	0,0049995	64,51181
	53	131	0,5040323	0,0319367	-0,0059211	1	0,032481	-10,50342	1,285593	1,521308	13	0,1538822	0,0049985	64,51804
	54	140	0,400641	0,032539	-0,005095	1	0,0329354	-8,899206	1,294367	1,521301	13	0,1518416	0,0050012	64,50893
	55	154	0,316723	0,0330004	-0,0041421	1	0,0332593	-7,154203	1,293924	1,521308	13	0,1503772	0,0050016	64,50826
	56	172	0,2520161	0,0334504	-0,0033359	1	0,0336163	-5,695066	1,289995	1,521306	13	0,148783	0,0050016	64,48497
	57	193	0,2003205	0,0334241	-0,0026292	1	0,0335273	-4,49766	1,28556	1,521308	13	0,1491295	0,005	64,45372
	58	220	0,1588983	0,0339102	-0,0020705	1	0,0339734	-3,494088	1,28746	1,521305	13	0,1471757	0,0050001	64,41028
	59	252	0,1260081	0,0338838	-0,0018836	1	0,0339361	-3,181823	1,283794	1,521302	13	0,1473773	0,0050014	64,39355
	60	290	0,1001603	0,0343096	-0,0016218	1	0,0343479	-2,706259	1,284595	1,521302	13	0,1455626	0,0049998	64,43491
