EXPLAIN
TAG	CHRONOP
TITLE	LABEL	Chronopotentiometry Scan	Test Identifier
DATE	LABEL	23/2/2026	Date
TIME	LABEL	22:04:29	Time
NOTES	NOTES	1	Notes...
	Curva de activacion, creada a traves de la iteracion de cronopotenciometrias de 2 pasos. Rama descendent
PSTAT	PSTAT	REF3000-46189	Potentiostat
IPRESTEP	QUANT	1,60000E+001	A Real Number
TPRESTEP	QUANT	0,00000E+000	Pre-step Delay Time (s)
ISTEP1	QUANT	1,60000E+001	A Real Number
TSTEP1	QUANT	1,25000E+002	Step 1 Time (s)
ISTEP2	QUANT	1,50000E+001	A Real Number
TSTEP2	QUANT	1,25000E+002	Step 2 Time (s)
SAMPLETIME	QUANT	1,00000E+000	Sample Period (s)
DECIMATE	TOGGLE	F	Decimate
VLIMITLOWER	QUANT	-4,00000E+000	Lower Limit V (V)
VLIMITUPPER	QUANT	4,00000E+000	Upper Limit V (V)
EQDELAY	QUANT	0,00000E+000	Equil. Time (s)
SAMPLINGMODE	SELECTOR	1	Sampling Mode
AREA	QUANT	2,50000E+001	Sample Area (cm^2)
ELECTRODETYPE	SELECTOR	0	Electrode Type
STRIPPING	TOGGLE	F	Used for Stripping
SEQUENCER	TOGGLE	TRUE	Run as Sequence
PSTATMODEL	IQUANT	6	Pstat Model
PSTATSECTION	LABEL	REF30K-46189	Pstat Section
PSTATSERIALNO	LABEL	46189	Pstat Serial Number
CTRLMODE	IQUANT	0	Control Mode
ELECTROMETER	IQUANT	0	RE=0 or CS=1
IESTAB	IQUANT	0	I/E Stability
CASPEED	IQUANT	4	Control Amp Speed
CONVENTION	IQUANT	1	Current Convention
ICHRANGE	IQUANT	2	Ich Range
ICHRANGEMODE	TOGGLE	T	Ich Auto Range
ICHOFFSETENABLE	TOGGLE	F	Ich Offset Enable
ICHOFFSET	QUANT	0	Ich Offset (V)
ICHFILTER	IQUANT	3	Ich Filter
VCHRANGE	IQUANT	3	Vch Range
VCHRANGEMODE	TOGGLE	T	Vch Auto Range
VCHOFFSETENABLE	TOGGLE	F	Vch Offset Enable
VCHOFFSET	QUANT	0	Vch Offset (V)
VCHFILTER	IQUANT	3	Vch Filter
ACHRANGE	IQUANT	2	Ach Range
ACHOFFSETENABLE	TOGGLE	F	Ach Offset Enable
ACHOFFSET	QUANT	0	Ach Offset (V)
ACHFILTER	IQUANT	1	Ach Filter
IERANGELOWERLIMIT	IQUANT	13	I/E Range Lower Limit
IERANGEMODE	TOGGLE	F	I/E AutoRange
IERANGE	IQUANT	13	I/E Range
POSFEEDENABLE	TOGGLE	F	Positive Feedback IR Comp
POSFEEDRESISTANCE	QUANT	0	Positive Feedback Resistance (ohm)
ACHSELECT	IQUANT	4	Ach Select
SENSECABLEID	IQUANT	14	Sense Cable ID
PWRCABLEID	IQUANT	8	Power Cable ID
DCCALDATE	LABEL	10/1/2025	DC Calibration Date
ACCALDATE	LABEL	10/1/2025	AC Calibration Date
THERMOSELECT	IQUANT	1	Thermo Select
FRAMEWORKVERSION	LABEL	7.10.1	Framework Version
INSTRUMENTVERSION	LABEL	4.80	Instrument Version
COMMVERSION	LABEL	5.10	Communications Version
CPUPLDVERSION	LABEL	6.00	CPU PLD Version
CTRLPLDVERSION	LABEL	3.21	CTRL PLD Version
PSTATPLDVERSION	LABEL	0.00	PSTAT PLD Version
BOOSTERDCCALDATE	LABEL	10/1/2025	Booster DC Calibration Date
CURVE	TABLE	251
	Pt	T	Vf	Im	Vu	Sig	Ach	IERange	Over	Temp
	#	s	V vs. Ref.	A	V	V	V	#	bits	deg C
	0	0	2,08768E+000	1,59629E+001	0,00000E+000	1,56695E+000	-1,40218E-005	13	...........	63,23
	1	1	2,08779E+000	1,59634E+001	0,00000E+000	1,56695E+000	-8,67176E-006	13	...........	63,22
	2	2	2,08826E+000	1,59634E+001	0,00000E+000	1,56695E+000	-2,57176E-006	13	...........	63,22
	3	3	2,08842E+000	1,59635E+001	0,00000E+000	1,56695E+000	-5,25510E-006	13	...........	63,21
	4	4	2,08860E+000	1,59636E+001	0,00000E+000	1,56695E+000	-4,82176E-006	13	...........	63,21
	5	5	2,08870E+000	1,59635E+001	0,00000E+000	1,56695E+000	-8,00510E-006	13	...........	63,20
	6	6	2,08878E+000	1,59635E+001	0,00000E+000	1,56695E+000	-6,53843E-006	13	...........	63,21
	7	7	2,08886E+000	1,59635E+001	0,00000E+000	1,56695E+000	-6,80510E-006	13	...........	63,21
	8	8	2,08893E+000	1,59636E+001	0,00000E+000	1,56695E+000	-4,35509E-006	13	...........	63,20
	9	9	2,08899E+000	1,59635E+001	0,00000E+000	1,56695E+000	-1,82177E-006	13	...........	63,20
	10	10	2,08905E+000	1,59635E+001	0,00000E+000	1,56695E+000	-8,38430E-007	13	...........	63,19
	11	11	2,08908E+000	1,59636E+001	0,00000E+000	1,56695E+000	-2,45510E-006	13	...........	63,19
	12	12	2,08911E+000	1,59636E+001	0,00000E+000	1,56695E+000	-1,93843E-006	13	...........	63,19
	13	13	2,08921E+000	1,59634E+001	0,00000E+000	1,56695E+000	-1,33843E-006	13	...........	63,19
	14	14	2,08932E+000	1,59634E+001	0,00000E+000	1,56695E+000	-3,33843E-006	13	...........	63,19
	15	15	2,08930E+000	1,59634E+001	0,00000E+000	1,56695E+000	-7,88430E-007	13	...........	63,18
	16	16	2,08941E+000	1,59635E+001	0,00000E+000	1,56695E+000	-4,42177E-006	13	...........	63,18
	17	17	2,08950E+000	1,59635E+001	0,00000E+000	1,56695E+000	-3,18843E-006	13	...........	63,19
	18	18	2,08955E+000	1,59634E+001	0,00000E+000	1,56695E+000	-5,68843E-006	13	...........	63,18
	19	19	2,08965E+000	1,59634E+001	0,00000E+000	1,56695E+000	-6,30510E-006	13	...........	63,18
	20	20	2,08964E+000	1,59635E+001	0,00000E+000	1,56695E+000	-7,20509E-006	13	...........	63,18
	21	21	2,08959E+000	1,59635E+001	0,00000E+000	1,56695E+000	-4,17176E-006	13	...........	63,18
	22	22	2,08950E+000	1,59636E+001	0,00000E+000	1,56695E+000	-3,35510E-006	13	...........	63,18
	23	23	2,08958E+000	1,59634E+001	0,00000E+000	1,56695E+000	-5,88843E-006	13	...........	63,18
	24	24	2,08959E+000	1,59634E+001	0,00000E+000	1,56695E+000	-6,87176E-006	13	...........	63,17
	25	25	2,08954E+000	1,59635E+001	0,00000E+000	1,56695E+000	-3,68843E-006	13	...........	63,18
	26	26	2,08952E+000	1,59634E+001	0,00000E+000	1,56695E+000	-6,42176E-006	13	...........	63,18
	27	27	2,08957E+000	1,59634E+001	0,00000E+000	1,56695E+000	-3,87176E-006	13	...........	63,18
	28	28	2,08950E+000	1,59634E+001	0,00000E+000	1,56695E+000	-5,37176E-006	13	...........	63,18
	29	29	2,08958E+000	1,59634E+001	0,00000E+000	1,56695E+000	-6,93843E-006	13	...........	63,17
	30	30	2,08954E+000	1,59634E+001	0,00000E+000	1,56695E+000	-5,92176E-006	13	...........	63,18
	31	31	2,08949E+000	1,59634E+001	0,00000E+000	1,56695E+000	-4,55510E-006	13	...........	63,18
	32	32	2,08955E+000	1,59634E+001	0,00000E+000	1,56695E+000	-4,13843E-006	13	...........	63,19
	33	33	2,08954E+000	1,59633E+001	0,00000E+000	1,56695E+000	-4,45510E-006	13	...........	63,19
	34	34	2,08949E+000	1,59634E+001	0,00000E+000	1,56695E+000	-2,32177E-006	13	...........	63,19
	35	35	2,08949E+000	1,59633E+001	0,00000E+000	1,56695E+000	-5,85510E-006	13	...........	63,19
	36	36	2,08947E+000	1,59634E+001	0,00000E+000	1,56695E+000	-2,08843E-006	13	...........	63,19
	37	37	2,08946E+000	1,59633E+001	0,00000E+000	1,56695E+000	-3,60510E-006	13	...........	63,20
	38	38	2,08946E+000	1,59634E+001	0,00000E+000	1,56695E+000	-4,07176E-006	13	...........	63,20
	39	39	2,08940E+000	1,59634E+001	0,00000E+000	1,56695E+000	-3,95509E-006	13	...........	63,20
	40	40	2,08930E+000	1,59634E+001	0,00000E+000	1,56695E+000	-1,63843E-006	13	...........	63,20
	41	41	2,08939E+000	1,59635E+001	0,00000E+000	1,56695E+000	-4,48843E-006	13	...........	63,21
	42	42	2,08938E+000	1,59634E+001	0,00000E+000	1,56695E+000	-4,18843E-006	13	...........	63,20
	43	43	2,08944E+000	1,59634E+001	0,00000E+000	1,56695E+000	-2,45510E-006	13	...........	63,21
	44	44	2,08937E+000	1,59634E+001	0,00000E+000	1,56695E+000	-2,52176E-006	13	...........	63,21
	45	45	2,08939E+000	1,59634E+001	0,00000E+000	1,56695E+000	-3,65510E-006	13	...........	63,21
	46	46	2,08946E+000	1,59634E+001	0,00000E+000	1,56695E+000	-3,33843E-006	13	...........	63,21
	47	47	2,08952E+000	1,59635E+001	0,00000E+000	1,56695E+000	-5,90510E-006	13	...........	63,22
	48	48	2,08948E+000	1,59635E+001	0,00000E+000	1,56695E+000	-7,55095E-007	13	...........	63,22
	49	49	2,08940E+000	1,59636E+001	0,00000E+000	1,56695E+000	-2,20510E-006	13	...........	63,22
	50	50	2,08944E+000	1,59636E+001	0,00000E+000	1,56695E+000	-4,17176E-006	13	...........	63,22
	51	51	2,08944E+000	1,59635E+001	0,00000E+000	1,56695E+000	-3,75510E-006	13	...........	63,22
	52	52	2,08948E+000	1,59635E+001	0,00000E+000	1,56695E+000	-3,00510E-006	13	...........	63,23
	53	53	2,08943E+000	1,59635E+001	0,00000E+000	1,56695E+000	-5,07176E-006	13	...........	63,23
	54	54	2,08944E+000	1,59634E+001	0,00000E+000	1,56695E+000	-3,90509E-006	13	...........	63,23
	55	55	2,08947E+000	1,59633E+001	0,00000E+000	1,56695E+000	-3,43843E-006	13	...........	63,23
	56	56	2,08947E+000	1,59633E+001	0,00000E+000	1,56695E+000	-3,02176E-006	13	...........	63,23
	57	57	2,08956E+000	1,59635E+001	0,00000E+000	1,56695E+000	-6,88843E-006	13	...........	63,23
	58	58	2,08957E+000	1,59635E+001	0,00000E+000	1,56695E+000	-5,43843E-006	13	...........	63,23
	59	59	2,08955E+000	1,59635E+001	0,00000E+000	1,56695E+000	-3,88844E-006	13	...........	63,23
	60	60	2,08959E+000	1,59634E+001	0,00000E+000	1,56695E+000	-3,82176E-006	13	...........	63,23
	61	61	2,08964E+000	1,59636E+001	0,00000E+000	1,56695E+000	-4,50510E-006	13	...........	63,22
	62	62	2,08967E+000	1,59635E+001	0,00000E+000	1,56695E+000	-6,05510E-006	13	...........	63,22
	63	63	2,08969E+000	1,59634E+001	0,00000E+000	1,56695E+000	-7,50510E-006	13	...........	63,21
	64	64	2,08976E+000	1,59635E+001	0,00000E+000	1,56695E+000	-7,25510E-006	13	...........	63,22
	65	65	2,08977E+000	1,59635E+001	0,00000E+000	1,56695E+000	-7,23843E-006	13	...........	63,21
	66	66	2,08984E+000	1,59636E+001	0,00000E+000	1,56695E+000	-1,17551E-005	13	...........	63,21
	67	67	2,08985E+000	1,59635E+001	0,00000E+000	1,56695E+000	-1,09884E-005	13	...........	63,21
	68	68	2,08987E+000	1,59634E+001	0,00000E+000	1,56695E+000	-9,77176E-006	13	...........	63,21
	69	69	2,08989E+000	1,59635E+001	0,00000E+000	1,56695E+000	-8,80510E-006	13	...........	63,21
	70	70	2,08991E+000	1,59635E+001	0,00000E+000	1,56695E+000	-7,78843E-006	13	...........	63,21
	71	71	2,08991E+000	1,59635E+001	0,00000E+000	1,56695E+000	-7,77176E-006	13	...........	63,21
	72	72	2,08991E+000	1,59636E+001	0,00000E+000	1,56695E+000	-9,32176E-006	13	...........	63,21
	73	73	2,08992E+000	1,59634E+001	0,00000E+000	1,56695E+000	-7,85509E-006	13	...........	63,21
	74	74	2,08993E+000	1,59636E+001	0,00000E+000	1,56695E+000	-1,01551E-005	13	...........	63,20
	75	75	2,08993E+000	1,59635E+001	0,00000E+000	1,56695E+000	-9,88843E-006	13	...........	63,20
	76	76	2,08993E+000	1,59635E+001	0,00000E+000	1,56695E+000	-1,18384E-005	13	...........	63,20
	77	77	2,08993E+000	1,59634E+001	0,00000E+000	1,56695E+000	-1,08551E-005	13	...........	63,19
	78	78	2,08993E+000	1,59635E+001	0,00000E+000	1,56695E+000	-9,23843E-006	13	...........	63,19
	79	79	2,08993E+000	1,59635E+001	0,00000E+000	1,56695E+000	-1,21884E-005	13	...........	63,19
	80	80	2,08994E+000	1,59635E+001	0,00000E+000	1,56695E+000	-9,33843E-006	13	...........	63,19
	81	81	2,08994E+000	1,59635E+001	0,00000E+000	1,56695E+000	-9,62176E-006	13	...........	63,19
	82	82	2,08994E+000	1,59635E+001	0,00000E+000	1,56695E+000	-1,12384E-005	13	...........	63,18
	83	83	2,08994E+000	1,59635E+001	0,00000E+000	1,56695E+000	-1,15718E-005	13	...........	63,18
	84	84	2,08994E+000	1,59635E+001	0,00000E+000	1,56695E+000	-9,05510E-006	13	...........	63,18
	85	85	2,08995E+000	1,59635E+001	0,00000E+000	1,56695E+000	-1,01718E-005	13	...........	63,18
	86	86	2,08994E+000	1,59635E+001	0,00000E+000	1,56695E+000	-1,13051E-005	13	...........	63,18
	87	87	2,08994E+000	1,59635E+001	0,00000E+000	1,56695E+000	-1,02051E-005	13	...........	63,18
	88	88	2,08996E+000	1,59635E+001	0,00000E+000	1,56695E+000	-1,18551E-005	13	...........	63,18
	89	89	2,08996E+000	1,59635E+001	0,00000E+000	1,56695E+000	-1,10384E-005	13	...........	63,18
	90	90	2,08996E+000	1,59635E+001	0,00000E+000	1,56695E+000	-9,38843E-006	13	...........	63,19
	91	91	2,08996E+000	1,59635E+001	0,00000E+000	1,56695E+000	-1,34718E-005	13	...........	63,18
	92	92	2,08995E+000	1,59634E+001	0,00000E+000	1,56695E+000	-1,02051E-005	13	...........	63,18
	93	93	2,08996E+000	1,59635E+001	0,00000E+000	1,56695E+000	-1,08051E-005	13	...........	63,19
	94	94	2,08997E+000	1,59636E+001	0,00000E+000	1,56695E+000	-1,18884E-005	13	...........	63,18
	95	95	2,08996E+000	1,59635E+001	0,00000E+000	1,56695E+000	-1,23718E-005	13	...........	63,18
	96	96	2,08995E+000	1,59634E+001	0,00000E+000	1,56695E+000	-1,08384E-005	13	...........	63,18
	97	97	2,08995E+000	1,59635E+001	0,00000E+000	1,56695E+000	-1,04718E-005	13	...........	63,18
	98	98	2,08996E+000	1,59636E+001	0,00000E+000	1,56695E+000	-1,17384E-005	13	...........	63,18
	99	99	2,08996E+000	1,59636E+001	0,00000E+000	1,56695E+000	-1,11884E-005	13	...........	63,18
	100	100	2,08995E+000	1,59635E+001	0,00000E+000	1,56695E+000	-1,08384E-005	13	...........	63,18
	101	101	2,08995E+000	1,59635E+001	0,00000E+000	1,56695E+000	-9,73843E-006	13	...........	63,18
	102	102	2,08996E+000	1,59636E+001	0,00000E+000	1,56695E+000	-1,11384E-005	13	...........	63,18
	103	103	2,08995E+000	1,59636E+001	0,00000E+000	1,56695E+000	-1,02551E-005	13	...........	63,18
	104	104	2,08995E+000	1,59636E+001	0,00000E+000	1,56695E+000	-1,27718E-005	13	...........	63,18
	105	105	2,08994E+000	1,59636E+001	0,00000E+000	1,56695E+000	-1,14551E-005	13	...........	63,18
	106	106	2,08994E+000	1,59636E+001	0,00000E+000	1,56695E+000	-1,22551E-005	13	...........	63,18
	107	107	2,08995E+000	1,59636E+001	0,00000E+000	1,56695E+000	-8,85510E-006	13	...........	63,19
	108	108	2,08995E+000	1,59635E+001	0,00000E+000	1,56695E+000	-9,90510E-006	13	...........	63,19
	109	109	2,08995E+000	1,59637E+001	0,00000E+000	1,56695E+000	-9,42176E-006	13	...........	63,18
	110	110	2,08995E+000	1,59635E+001	0,00000E+000	1,56695E+000	-1,21718E-005	13	...........	63,18
	111	111	2,08995E+000	1,59636E+001	0,00000E+000	1,56695E+000	-1,20551E-005	13	...........	63,19
	112	112	2,08997E+000	1,59637E+001	0,00000E+000	1,56695E+000	-1,28384E-005	13	...........	63,17
	113	113	2,08997E+000	1,59636E+001	0,00000E+000	1,56695E+000	-1,01718E-005	13	...........	63,16
	114	114	2,08997E+000	1,59637E+001	0,00000E+000	1,56695E+000	-1,22551E-005	13	...........	63,17
	115	115	2,08997E+000	1,59636E+001	0,00000E+000	1,56695E+000	-1,17218E-005	13	...........	63,16
	116	116	2,08998E+000	1,59635E+001	0,00000E+000	1,56695E+000	-1,47051E-005	13	...........	63,17
	117	117	2,09000E+000	1,59636E+001	0,00000E+000	1,56695E+000	-9,40510E-006	13	...........	63,16
	118	118	2,09002E+000	1,59636E+001	0,00000E+000	1,56695E+000	-1,24218E-005	13	...........	63,16
	119	119	2,09001E+000	1,59636E+001	0,00000E+000	1,56695E+000	-8,65510E-006	13	...........	63,17
	120	120	2,09003E+000	1,59636E+001	0,00000E+000	1,56695E+000	-9,03843E-006	13	...........	63,17
	121	121	2,09004E+000	1,59636E+001	0,00000E+000	1,56695E+000	-1,12051E-005	13	...........	63,16
	122	122	2,09003E+000	1,59636E+001	0,00000E+000	1,56695E+000	-8,72176E-006	13	...........	63,16
	123	123	2,09004E+000	1,59636E+001	0,00000E+000	1,56695E+000	-6,97176E-006	13	...........	63,17
	124	124	2,09002E+000	1,59636E+001	0,00000E+000	1,56695E+000	-1,04051E-005	13	...........	63,16
	125	125	2,09001E+000	1,59636E+001	0,00000E+000	1,56695E+000	-1,11384E-005	13	...........	63,17
	126	126	2,07478E+000	1,49638E+001	0,00000E+000	1,46900E+000	8,94906E-007	13	...........	63,16
	127	127	2,07479E+000	1,49638E+001	0,00000E+000	1,46900E+000	-1,55510E-006	13	...........	63,17
	128	128	2,07476E+000	1,49638E+001	0,00000E+000	1,46900E+000	-7,55095E-007	13	...........	63,16
	129	129	2,07477E+000	1,49637E+001	0,00000E+000	1,46900E+000	-3,68843E-006	13	...........	63,17
	130	130	2,07476E+000	1,49638E+001	0,00000E+000	1,46900E+000	-1,00510E-006	13	...........	63,17
	131	131	2,07474E+000	1,49637E+001	0,00000E+000	1,46900E+000	-1,45510E-006	13	...........	63,17
	132	132	2,07473E+000	1,49638E+001	0,00000E+000	1,46900E+000	-1,75510E-006	13	...........	63,18
	133	133	2,07471E+000	1,49637E+001	0,00000E+000	1,46900E+000	-1,25510E-006	13	...........	63,18
	134	134	2,07470E+000	1,49637E+001	0,00000E+000	1,46900E+000	-9,88428E-007	13	...........	63,18
	135	135	2,07471E+000	1,49637E+001	0,00000E+000	1,46900E+000	5,78239E-007	13	...........	63,18
	136	136	2,07471E+000	1,49637E+001	0,00000E+000	1,46900E+000	-2,50509E-006	13	...........	63,19
	137	137	2,07469E+000	1,49637E+001	0,00000E+000	1,46900E+000	2,37824E-006	13	...........	63,19
	138	138	2,07472E+000	1,49638E+001	0,00000E+000	1,46900E+000	-3,12176E-006	13	...........	63,19
	139	139	2,07473E+000	1,49638E+001	0,00000E+000	1,46900E+000	-5,09681E-009	13	...........	63,19
	140	140	2,07474E+000	1,49638E+001	0,00000E+000	1,46900E+000	-1,33843E-006	13	...........	63,19
	141	141	2,07474E+000	1,49638E+001	0,00000E+000	1,46900E+000	-2,05095E-007	13	...........	63,19
	142	142	2,07475E+000	1,49638E+001	0,00000E+000	1,46900E+000	-1,37176E-006	13	...........	63,19
	143	143	2,07471E+000	1,49638E+001	0,00000E+000	1,46900E+000	-2,28843E-006	13	...........	63,19
	144	144	2,07475E+000	1,49638E+001	0,00000E+000	1,46900E+000	-6,55098E-007	13	...........	63,20
	145	145	2,07477E+000	1,49638E+001	0,00000E+000	1,46900E+000	-1,25510E-006	13	...........	63,19
	146	146	2,07474E+000	1,49638E+001	0,00000E+000	1,46900E+000	1,22824E-006	13	...........	63,19
	147	147	2,07476E+000	1,49637E+001	0,00000E+000	1,46900E+000	-9,05096E-007	13	...........	63,19
	148	148	2,07478E+000	1,49638E+001	0,00000E+000	1,46900E+000	-4,57176E-006	13	...........	63,19
	149	149	2,07478E+000	1,49636E+001	0,00000E+000	1,46900E+000	-2,23843E-006	13	...........	63,19
	150	150	2,07480E+000	1,49638E+001	0,00000E+000	1,46900E+000	-5,88429E-007	13	...........	63,19
	151	151	2,07478E+000	1,49637E+001	0,00000E+000	1,46900E+000	-2,52176E-006	13	...........	63,19
	152	152	2,07475E+000	1,49637E+001	0,00000E+000	1,46900E+000	-1,12176E-006	13	...........	63,18
	153	153	2,07481E+000	1,49637E+001	0,00000E+000	1,46900E+000	1,97824E-006	13	...........	63,18
	154	154	2,07479E+000	1,49636E+001	0,00000E+000	1,46900E+000	5,11565E-007	13	...........	63,18
	155	155	2,07478E+000	1,49639E+001	0,00000E+000	1,46900E+000	-2,75510E-006	13	...........	63,18
	156	156	2,07481E+000	1,49637E+001	0,00000E+000	1,46900E+000	-6,21767E-007	13	...........	63,19
	157	157	2,07479E+000	1,49637E+001	0,00000E+000	1,46900E+000	-9,38431E-007	13	...........	63,19
	158	158	2,07480E+000	1,49638E+001	0,00000E+000	1,46900E+000	-1,17176E-006	13	...........	63,18
	159	159	2,07484E+000	1,49637E+001	0,00000E+000	1,46900E+000	4,11568E-007	13	...........	63,18
	160	160	2,07484E+000	1,49637E+001	0,00000E+000	1,46900E+000	3,78237E-007	13	...........	63,19
	161	161	2,07485E+000	1,49638E+001	0,00000E+000	1,46900E+000	-1,33843E-006	13	...........	63,19
	162	162	2,07484E+000	1,49637E+001	0,00000E+000	1,46900E+000	-1,60510E-006	13	...........	63,19
	163	163	2,07486E+000	1,49636E+001	0,00000E+000	1,46900E+000	-1,17176E-006	13	...........	63,19
	164	164	2,07488E+000	1,49636E+001	0,00000E+000	1,46900E+000	-2,52176E-006	13	...........	63,19
	165	165	2,07488E+000	1,49638E+001	0,00000E+000	1,46900E+000	-3,63843E-006	13	...........	63,18
	166	166	2,07487E+000	1,49637E+001	0,00000E+000	1,46900E+000	6,44905E-007	13	...........	63,18
	167	167	2,07492E+000	1,49637E+001	0,00000E+000	1,46900E+000	9,49003E-008	13	...........	63,18
	168	168	2,07495E+000	1,49637E+001	0,00000E+000	1,46900E+000	-2,45510E-006	13	...........	63,17
	169	169	2,07498E+000	1,49637E+001	0,00000E+000	1,46900E+000	-9,38431E-007	13	...........	63,17
	170	170	2,07495E+000	1,49637E+001	0,00000E+000	1,46900E+000	-1,95510E-006	13	...........	63,17
	171	171	2,07497E+000	1,49637E+001	0,00000E+000	1,46900E+000	1,19490E-006	13	...........	63,16
	172	172	2,07502E+000	1,49637E+001	0,00000E+000	1,46900E+000	-1,38429E-007	13	...........	63,17
	173	173	2,07502E+000	1,49638E+001	0,00000E+000	1,46900E+000	-2,13843E-006	13	...........	63,17
	174	174	2,07501E+000	1,49637E+001	0,00000E+000	1,46900E+000	-4,88843E-006	13	...........	63,17
	175	175	2,07504E+000	1,49638E+001	0,00000E+000	1,46900E+000	-3,30510E-006	13	...........	63,16
	176	176	2,07507E+000	1,49639E+001	0,00000E+000	1,46900E+000	-4,22176E-006	13	...........	63,16
	177	177	2,07510E+000	1,49638E+001	0,00000E+000	1,46900E+000	-8,88431E-007	13	...........	63,15
	178	178	2,07511E+000	1,49637E+001	0,00000E+000	1,46900E+000	-2,90510E-006	13	...........	63,16
	179	179	2,07513E+000	1,49637E+001	0,00000E+000	1,46900E+000	-5,02176E-006	13	...........	63,15
	180	180	2,07511E+000	1,49638E+001	0,00000E+000	1,46900E+000	-1,40509E-006	13	...........	63,15
	181	181	2,07513E+000	1,49638E+001	0,00000E+000	1,46900E+000	-4,35509E-006	13	...........	63,15
	182	182	2,07517E+000	1,49638E+001	0,00000E+000	1,46900E+000	-2,00510E-006	13	...........	63,16
	183	183	2,07519E+000	1,49639E+001	0,00000E+000	1,46900E+000	-6,88433E-007	13	...........	63,16
	184	184	2,07520E+000	1,49637E+001	0,00000E+000	1,46900E+000	-5,75510E-006	13	...........	63,15
	185	185	2,07518E+000	1,49637E+001	0,00000E+000	1,46900E+000	-5,08843E-006	13	...........	63,15
	186	186	2,07520E+000	1,49637E+001	0,00000E+000	1,46900E+000	-6,50510E-006	13	...........	63,16
	187	187	2,07520E+000	1,49637E+001	0,00000E+000	1,46900E+000	-5,10510E-006	13	...........	63,16
	188	188	2,07521E+000	1,49637E+001	0,00000E+000	1,46900E+000	-5,83843E-006	13	...........	63,16
	189	189	2,07518E+000	1,49638E+001	0,00000E+000	1,46900E+000	-4,45510E-006	13	...........	63,15
	190	190	2,07515E+000	1,49636E+001	0,00000E+000	1,46900E+000	-3,87176E-006	13	...........	63,16
	191	191	2,07517E+000	1,49637E+001	0,00000E+000	1,46900E+000	-4,15510E-006	13	...........	63,16
	192	192	2,07516E+000	1,49637E+001	0,00000E+000	1,46900E+000	-4,65510E-006	13	...........	63,16
	193	193	2,07513E+000	1,49638E+001	0,00000E+000	1,46900E+000	-1,70510E-006	13	...........	63,17
	194	194	2,07513E+000	1,49637E+001	0,00000E+000	1,46900E+000	-1,85510E-006	13	...........	63,16
	195	195	2,07513E+000	1,49637E+001	0,00000E+000	1,46900E+000	-3,63843E-006	13	...........	63,16
	196	196	2,07512E+000	1,49637E+001	0,00000E+000	1,46900E+000	-3,60510E-006	13	...........	63,16
	197	197	2,07509E+000	1,49637E+001	0,00000E+000	1,46900E+000	-3,75510E-006	13	...........	63,16
	198	198	2,07509E+000	1,49638E+001	0,00000E+000	1,46900E+000	-3,25510E-006	13	...........	63,16
	199	199	2,07503E+000	1,49636E+001	0,00000E+000	1,46900E+000	1,66157E-006	13	...........	63,16
	200	200	2,07504E+000	1,49638E+001	0,00000E+000	1,46900E+000	-2,28843E-006	13	...........	63,16
	201	201	2,07504E+000	1,49637E+001	0,00000E+000	1,46900E+000	-6,05094E-007	13	...........	63,17
	202	202	2,07500E+000	1,49636E+001	0,00000E+000	1,46900E+000	-8,21765E-007	13	...........	63,17
	203	203	2,07494E+000	1,49638E+001	0,00000E+000	1,46900E+000	4,48999E-008	13	...........	63,18
	204	204	2,07493E+000	1,49635E+001	0,00000E+000	1,46900E+000	-1,02177E-006	13	...........	63,18
	205	205	2,07492E+000	1,49637E+001	0,00000E+000	1,46900E+000	-1,63843E-006	13	...........	63,18
	206	206	2,07488E+000	1,49638E+001	0,00000E+000	1,46900E+000	-1,00510E-006	13	...........	63,19
	207	207	2,07485E+000	1,49637E+001	0,00000E+000	1,46900E+000	-1,80510E-006	13	...........	63,20
	208	208	2,07474E+000	1,49638E+001	0,00000E+000	1,46900E+000	-1,55510E-006	13	...........	63,20
	209	209	2,07474E+000	1,49637E+001	0,00000E+000	1,46900E+000	-1,80510E-006	13	...........	63,20
	210	210	2,07473E+000	1,49637E+001	0,00000E+000	1,46900E+000	-1,21763E-007	13	...........	63,21
	211	211	2,07472E+000	1,49637E+001	0,00000E+000	1,46900E+000	-2,37176E-006	13	...........	63,21
	212	212	2,07470E+000	1,49636E+001	0,00000E+000	1,46900E+000	-1,37176E-006	13	...........	63,22
	213	213	2,07469E+000	1,49636E+001	0,00000E+000	1,46900E+000	1,64490E-006	13	...........	63,22
	214	214	2,07467E+000	1,49637E+001	0,00000E+000	1,46900E+000	-1,37176E-006	13	...........	63,22
	215	215	2,07468E+000	1,49638E+001	0,00000E+000	1,46900E+000	-1,02177E-006	13	...........	63,22
	216	216	2,07467E+000	1,49637E+001	0,00000E+000	1,46900E+000	3,94903E-007	13	...........	63,22
	217	217	2,07464E+000	1,49637E+001	0,00000E+000	1,46900E+000	-9,88428E-007	13	...........	63,23
	218	218	2,07465E+000	1,49637E+001	0,00000E+000	1,46900E+000	-3,83843E-006	13	...........	63,22
	219	219	2,07465E+000	1,49636E+001	0,00000E+000	1,46900E+000	2,78236E-007	13	...........	63,23
	220	220	2,07463E+000	1,49637E+001	0,00000E+000	1,46900E+000	-7,17628E-008	13	...........	63,23
	221	221	2,07464E+000	1,49637E+001	0,00000E+000	1,46900E+000	8,28233E-007	13	...........	63,24
	222	222	2,07463E+000	1,49637E+001	0,00000E+000	1,46900E+000	-1,88429E-007	13	...........	63,24
	223	223	2,07464E+000	1,49638E+001	0,00000E+000	1,46900E+000	-1,90510E-006	13	...........	63,24
	224	224	2,07463E+000	1,49638E+001	0,00000E+000	1,46900E+000	2,44490E-006	13	...........	63,24
	225	225	2,07464E+000	1,49638E+001	0,00000E+000	1,46900E+000	7,78236E-007	13	...........	63,24
	226	226	2,07464E+000	1,49637E+001	0,00000E+000	1,46900E+000	1,16157E-006	13	...........	63,24
	227	227	2,07463E+000	1,49636E+001	0,00000E+000	1,46900E+000	1,66157E-006	13	...........	63,24
	228	228	2,07463E+000	1,49638E+001	0,00000E+000	1,46900E+000	3,78237E-007	13	...........	63,25
	229	229	2,07464E+000	1,49638E+001	0,00000E+000	1,46900E+000	1,07824E-006	13	...........	63,24
	230	230	2,07465E+000	1,49638E+001	0,00000E+000	1,46900E+000	2,82416E-008	13	...........	63,24
	231	231	2,07465E+000	1,49638E+001	0,00000E+000	1,46900E+000	5,11565E-007	13	...........	63,24
	232	232	2,07467E+000	1,49636E+001	0,00000E+000	1,46900E+000	1,34490E-006	13	...........	63,24
	233	233	2,07467E+000	1,49637E+001	0,00000E+000	1,46900E+000	6,28235E-007	13	...........	63,23
	234	234	2,07473E+000	1,49638E+001	0,00000E+000	1,46900E+000	-1,12176E-006	13	...........	63,24
	235	235	2,07472E+000	1,49637E+001	0,00000E+000	1,46900E+000	-1,05098E-007	13	...........	63,24
	236	236	2,07470E+000	1,49637E+001	0,00000E+000	1,46900E+000	-2,88426E-007	13	...........	63,23
	237	237	2,07471E+000	1,49637E+001	0,00000E+000	1,46900E+000	-2,72176E-006	13	...........	63,23
	238	238	2,07476E+000	1,49637E+001	0,00000E+000	1,46900E+000	3,41157E-006	13	...........	63,23
	239	239	2,07480E+000	1,49639E+001	0,00000E+000	1,46900E+000	-1,82177E-006	13	...........	63,23
	240	240	2,07478E+000	1,49638E+001	0,00000E+000	1,46900E+000	-7,71764E-007	13	...........	63,23
	241	241	2,07484E+000	1,49638E+001	0,00000E+000	1,46900E+000	-2,45510E-006	13	...........	63,23
	242	242	2,07489E+000	1,49637E+001	0,00000E+000	1,46900E+000	-2,55510E-006	13	...........	63,22
	243	243	2,07492E+000	1,49638E+001	0,00000E+000	1,46900E+000	-9,55093E-007	13	...........	63,23
	244	244	2,07490E+000	1,49637E+001	0,00000E+000	1,46900E+000	-3,43843E-006	13	...........	63,23
	245	245	2,07489E+000	1,49638E+001	0,00000E+000	1,46900E+000	-1,30510E-006	13	...........	63,23
	246	246	2,07490E+000	1,49637E+001	0,00000E+000	1,46900E+000	1,71157E-006	13	...........	63,22
	247	247	2,07496E+000	1,49637E+001	0,00000E+000	1,46900E+000	-2,70510E-006	13	...........	63,22
	248	248	2,07498E+000	1,49638E+001	0,00000E+000	1,46900E+000	-3,15510E-006	13	...........	63,21
	249	249	2,07500E+000	1,49637E+001	0,00000E+000	1,46900E+000	1,94905E-007	13	...........	63,21
	250	250	2,07500E+000	1,49637E+001	0,00000E+000	1,46900E+000	1,24491E-006	13	...........	63,21
