EXPLAIN
TAG	CHRONOP
TITLE	LABEL	Chronopotentiometry Scan	Test Identifier
DATE	LABEL	23/2/2026	Date
TIME	LABEL	21:26:45	Time
NOTES	NOTES	1	Notes...
	Curva de activacion, creada a traves de la iteracion de cronopotenciometrias de 2 pasos. Rama descendent
PSTAT	PSTAT	REF3000-46189	Potentiostat
IPRESTEP	QUANT	1,60000E+001	A Real Number
TPRESTEP	QUANT	0,00000E+000	Pre-step Delay Time (s)
ISTEP1	QUANT	1,60000E+001	A Real Number
TSTEP1	QUANT	1,25000E+002	Step 1 Time (s)
ISTEP2	QUANT	1,50000E+001	A Real Number
TSTEP2	QUANT	1,25000E+002	Step 2 Time (s)
SAMPLETIME	QUANT	1,00000E+000	Sample Period (s)
DECIMATE	TOGGLE	F	Decimate
VLIMITLOWER	QUANT	-4,00000E+000	Lower Limit V (V)
VLIMITUPPER	QUANT	4,00000E+000	Upper Limit V (V)
EQDELAY	QUANT	0,00000E+000	Equil. Time (s)
SAMPLINGMODE	SELECTOR	1	Sampling Mode
AREA	QUANT	2,50000E+001	Sample Area (cm^2)
ELECTRODETYPE	SELECTOR	0	Electrode Type
STRIPPING	TOGGLE	F	Used for Stripping
SEQUENCER	TOGGLE	TRUE	Run as Sequence
PSTATMODEL	IQUANT	6	Pstat Model
PSTATSECTION	LABEL	REF30K-46189	Pstat Section
PSTATSERIALNO	LABEL	46189	Pstat Serial Number
CTRLMODE	IQUANT	0	Control Mode
ELECTROMETER	IQUANT	0	RE=0 or CS=1
IESTAB	IQUANT	0	I/E Stability
CASPEED	IQUANT	4	Control Amp Speed
CONVENTION	IQUANT	1	Current Convention
ICHRANGE	IQUANT	2	Ich Range
ICHRANGEMODE	TOGGLE	T	Ich Auto Range
ICHOFFSETENABLE	TOGGLE	F	Ich Offset Enable
ICHOFFSET	QUANT	0	Ich Offset (V)
ICHFILTER	IQUANT	3	Ich Filter
VCHRANGE	IQUANT	3	Vch Range
VCHRANGEMODE	TOGGLE	T	Vch Auto Range
VCHOFFSETENABLE	TOGGLE	F	Vch Offset Enable
VCHOFFSET	QUANT	0	Vch Offset (V)
VCHFILTER	IQUANT	3	Vch Filter
ACHRANGE	IQUANT	2	Ach Range
ACHOFFSETENABLE	TOGGLE	F	Ach Offset Enable
ACHOFFSET	QUANT	0	Ach Offset (V)
ACHFILTER	IQUANT	1	Ach Filter
IERANGELOWERLIMIT	IQUANT	13	I/E Range Lower Limit
IERANGEMODE	TOGGLE	F	I/E AutoRange
IERANGE	IQUANT	13	I/E Range
POSFEEDENABLE	TOGGLE	F	Positive Feedback IR Comp
POSFEEDRESISTANCE	QUANT	0	Positive Feedback Resistance (ohm)
ACHSELECT	IQUANT	4	Ach Select
SENSECABLEID	IQUANT	14	Sense Cable ID
PWRCABLEID	IQUANT	8	Power Cable ID
DCCALDATE	LABEL	10/1/2025	DC Calibration Date
ACCALDATE	LABEL	10/1/2025	AC Calibration Date
THERMOSELECT	IQUANT	1	Thermo Select
FRAMEWORKVERSION	LABEL	7.10.1	Framework Version
INSTRUMENTVERSION	LABEL	4.80	Instrument Version
COMMVERSION	LABEL	5.10	Communications Version
CPUPLDVERSION	LABEL	6.00	CPU PLD Version
CTRLPLDVERSION	LABEL	3.21	CTRL PLD Version
PSTATPLDVERSION	LABEL	0.00	PSTAT PLD Version
BOOSTERDCCALDATE	LABEL	10/1/2025	Booster DC Calibration Date
CURVE	TABLE	251
	Pt	T	Vf	Im	Vu	Sig	Ach	IERange	Over	Temp
	#	s	V vs. Ref.	A	V	V	V	#	bits	deg C
	0	0	2,07865E+000	1,59631E+001	0,00000E+000	1,56695E+000	-8,57177E-006	13	...........	63,13
	1	1	2,07891E+000	1,59635E+001	0,00000E+000	1,56695E+000	-1,16051E-005	13	...........	63,12
	2	2	2,07932E+000	1,59636E+001	0,00000E+000	1,56695E+000	-7,73843E-006	13	...........	63,11
	3	3	2,07957E+000	1,59635E+001	0,00000E+000	1,56695E+000	-4,20510E-006	13	...........	63,10
	4	4	2,07978E+000	1,59635E+001	0,00000E+000	1,56695E+000	-4,30510E-006	13	...........	63,10
	5	5	2,07998E+000	1,59636E+001	0,00000E+000	1,56695E+000	-9,90510E-006	13	...........	63,09
	6	6	2,08021E+000	1,59636E+001	0,00000E+000	1,56695E+000	-1,36718E-005	13	...........	63,08
	7	7	2,08029E+000	1,59635E+001	0,00000E+000	1,56695E+000	-1,49884E-005	13	...........	63,08
	8	8	2,08035E+000	1,59635E+001	0,00000E+000	1,56695E+000	-1,36384E-005	13	...........	63,07
	9	9	2,08038E+000	1,59636E+001	0,00000E+000	1,56695E+000	-1,25718E-005	13	...........	63,06
	10	10	2,08045E+000	1,59636E+001	0,00000E+000	1,56695E+000	-1,36884E-005	13	...........	63,06
	11	11	2,08052E+000	1,59636E+001	0,00000E+000	1,56695E+000	-9,85510E-006	13	...........	63,04
	12	12	2,08057E+000	1,59636E+001	0,00000E+000	1,56695E+000	-1,32551E-005	13	...........	63,05
	13	13	2,08064E+000	1,59635E+001	0,00000E+000	1,56695E+000	-1,22218E-005	13	...........	63,04
	14	14	2,08071E+000	1,59636E+001	0,00000E+000	1,56695E+000	-1,24718E-005	13	...........	63,04
	15	15	2,08077E+000	1,59636E+001	0,00000E+000	1,56695E+000	-1,17718E-005	13	...........	63,03
	16	16	2,08083E+000	1,59635E+001	0,00000E+000	1,56695E+000	-1,40551E-005	13	...........	63,03
	17	17	2,08086E+000	1,59635E+001	0,00000E+000	1,56695E+000	-1,20884E-005	13	...........	63,03
	18	18	2,08087E+000	1,59636E+001	0,00000E+000	1,56695E+000	-1,14384E-005	13	...........	63,03
	19	19	2,08091E+000	1,59637E+001	0,00000E+000	1,56695E+000	-1,20551E-005	13	...........	63,01
	20	20	2,08095E+000	1,59636E+001	0,00000E+000	1,56695E+000	-1,00051E-005	13	...........	63,01
	21	21	2,08098E+000	1,59636E+001	0,00000E+000	1,56695E+000	-7,17176E-006	13	...........	63,00
	22	22	2,08098E+000	1,59636E+001	0,00000E+000	1,56695E+000	-8,20510E-006	13	...........	63,00
	23	23	2,08100E+000	1,59637E+001	0,00000E+000	1,56695E+000	-7,12176E-006	13	...........	63,00
	24	24	2,08104E+000	1,59635E+001	0,00000E+000	1,56695E+000	-7,00509E-006	13	...........	63,00
	25	25	2,08105E+000	1,59636E+001	0,00000E+000	1,56695E+000	-7,77176E-006	13	...........	62,99
	26	26	2,08108E+000	1,59635E+001	0,00000E+000	1,56695E+000	-1,01384E-005	13	...........	62,99
	27	27	2,08107E+000	1,59636E+001	0,00000E+000	1,56695E+000	-7,37176E-006	13	...........	62,99
	28	28	2,08107E+000	1,59635E+001	0,00000E+000	1,56695E+000	-6,62177E-006	13	...........	62,99
	29	29	2,08109E+000	1,59634E+001	0,00000E+000	1,56695E+000	-8,68843E-006	13	...........	62,99
	30	30	2,08109E+000	1,59634E+001	0,00000E+000	1,56695E+000	-7,40510E-006	13	...........	62,99
	31	31	2,08109E+000	1,59636E+001	0,00000E+000	1,56695E+000	-9,72176E-006	13	...........	62,99
	32	32	2,08113E+000	1,59636E+001	0,00000E+000	1,56695E+000	-8,42176E-006	13	...........	62,99
	33	33	2,08115E+000	1,59636E+001	0,00000E+000	1,56695E+000	-9,12176E-006	13	...........	62,99
	34	34	2,08114E+000	1,59634E+001	0,00000E+000	1,56695E+000	-9,37176E-006	13	...........	62,99
	35	35	2,08114E+000	1,59635E+001	0,00000E+000	1,56695E+000	-9,13843E-006	13	...........	62,98
	36	36	2,08110E+000	1,59635E+001	0,00000E+000	1,56695E+000	-6,27177E-006	13	...........	62,98
	37	37	2,08105E+000	1,59635E+001	0,00000E+000	1,56695E+000	-7,70509E-006	13	...........	62,98
	38	38	2,08110E+000	1,59634E+001	0,00000E+000	1,56695E+000	-8,05510E-006	13	...........	62,98
	39	39	2,08111E+000	1,59636E+001	0,00000E+000	1,56695E+000	-8,98843E-006	13	...........	62,98
	40	40	2,08111E+000	1,59635E+001	0,00000E+000	1,56695E+000	-8,63843E-006	13	...........	62,98
	41	41	2,08108E+000	1,59635E+001	0,00000E+000	1,56695E+000	-5,52176E-006	13	...........	62,98
	42	42	2,08110E+000	1,59635E+001	0,00000E+000	1,56695E+000	-6,70510E-006	13	...........	62,98
	43	43	2,08113E+000	1,59636E+001	0,00000E+000	1,56695E+000	-6,98843E-006	13	...........	62,99
	44	44	2,08108E+000	1,59635E+001	0,00000E+000	1,56695E+000	-7,68843E-006	13	...........	63,00
	45	45	2,08109E+000	1,59635E+001	0,00000E+000	1,56695E+000	-6,48843E-006	13	...........	62,99
	46	46	2,08107E+000	1,59635E+001	0,00000E+000	1,56695E+000	-8,08843E-006	13	...........	63,00
	47	47	2,08111E+000	1,59636E+001	0,00000E+000	1,56695E+000	-5,07176E-006	13	...........	62,99
	48	48	2,08110E+000	1,59635E+001	0,00000E+000	1,56695E+000	-9,70509E-006	13	...........	62,99
	49	49	2,08111E+000	1,59635E+001	0,00000E+000	1,56695E+000	-7,27177E-006	13	...........	62,99
	50	50	2,08110E+000	1,59635E+001	0,00000E+000	1,56695E+000	-8,42176E-006	13	...........	62,99
	51	51	2,08113E+000	1,59635E+001	0,00000E+000	1,56695E+000	-8,08843E-006	13	...........	62,99
	52	52	2,08115E+000	1,59635E+001	0,00000E+000	1,56695E+000	-9,43843E-006	13	...........	62,99
	53	53	2,08113E+000	1,59634E+001	0,00000E+000	1,56695E+000	-9,30509E-006	13	...........	63,00
	54	54	2,08116E+000	1,59635E+001	0,00000E+000	1,56695E+000	-8,22176E-006	13	...........	63,00
	55	55	2,08112E+000	1,59635E+001	0,00000E+000	1,56695E+000	-6,67176E-006	13	...........	62,99
	56	56	2,08112E+000	1,59634E+001	0,00000E+000	1,56695E+000	-8,97176E-006	13	...........	62,99
	57	57	2,08116E+000	1,59634E+001	0,00000E+000	1,56695E+000	-9,38843E-006	13	...........	62,99
	58	58	2,08115E+000	1,59634E+001	0,00000E+000	1,56695E+000	-8,13843E-006	13	...........	62,99
	59	59	2,08112E+000	1,59634E+001	0,00000E+000	1,56695E+000	-5,97176E-006	13	...........	62,99
	60	60	2,08113E+000	1,59634E+001	0,00000E+000	1,56695E+000	-9,73843E-006	13	...........	63,00
	61	61	2,08117E+000	1,59635E+001	0,00000E+000	1,56695E+000	-9,12176E-006	13	...........	62,99
	62	62	2,08118E+000	1,59635E+001	0,00000E+000	1,56695E+000	-9,10510E-006	13	...........	63,00
	63	63	2,08119E+000	1,59635E+001	0,00000E+000	1,56695E+000	-8,47176E-006	13	...........	63,00
	64	64	2,08121E+000	1,59635E+001	0,00000E+000	1,56695E+000	-5,97176E-006	13	...........	63,00
	65	65	2,08118E+000	1,59635E+001	0,00000E+000	1,56695E+000	-8,78843E-006	13	...........	63,01
	66	66	2,08123E+000	1,59635E+001	0,00000E+000	1,56695E+000	-7,92176E-006	13	...........	63,01
	67	67	2,08124E+000	1,59635E+001	0,00000E+000	1,56695E+000	-7,90510E-006	13	...........	63,00
	68	68	2,08124E+000	1,59635E+001	0,00000E+000	1,56695E+000	-8,50510E-006	13	...........	63,00
	69	69	2,08124E+000	1,59635E+001	0,00000E+000	1,56695E+000	-5,88843E-006	13	...........	63,00
	70	70	2,08129E+000	1,59636E+001	0,00000E+000	1,56695E+000	-8,22176E-006	13	...........	63,00
	71	71	2,08130E+000	1,59635E+001	0,00000E+000	1,56695E+000	-5,78843E-006	13	...........	63,00
	72	72	2,08131E+000	1,59634E+001	0,00000E+000	1,56695E+000	-1,02218E-005	13	...........	63,00
	73	73	2,08130E+000	1,59635E+001	0,00000E+000	1,56695E+000	-6,00510E-006	13	...........	63,00
	74	74	2,08130E+000	1,59635E+001	0,00000E+000	1,56695E+000	-7,08843E-006	13	...........	63,00
	75	75	2,08136E+000	1,59634E+001	0,00000E+000	1,56695E+000	-4,65510E-006	13	...........	63,01
	76	76	2,08137E+000	1,59635E+001	0,00000E+000	1,56695E+000	-6,10510E-006	13	...........	63,01
	77	77	2,08135E+000	1,59635E+001	0,00000E+000	1,56695E+000	-3,92176E-006	13	...........	63,01
	78	78	2,08137E+000	1,59633E+001	0,00000E+000	1,56695E+000	-5,47176E-006	13	...........	63,01
	79	79	2,08141E+000	1,59634E+001	0,00000E+000	1,56695E+000	-4,53843E-006	13	...........	63,01
	80	80	2,08142E+000	1,59635E+001	0,00000E+000	1,56695E+000	-6,85509E-006	13	...........	63,01
	81	81	2,08145E+000	1,59633E+001	0,00000E+000	1,56695E+000	-6,68843E-006	13	...........	63,01
	82	82	2,08147E+000	1,59634E+001	0,00000E+000	1,56695E+000	-6,65510E-006	13	...........	63,01
	83	83	2,08144E+000	1,59633E+001	0,00000E+000	1,56695E+000	-4,30510E-006	13	...........	63,00
	84	84	2,08145E+000	1,59634E+001	0,00000E+000	1,56695E+000	-5,05097E-007	13	...........	63,00
	85	85	2,08150E+000	1,59633E+001	0,00000E+000	1,56695E+000	-7,02176E-006	13	...........	63,00
	86	86	2,08155E+000	1,59634E+001	0,00000E+000	1,56695E+000	-6,42176E-006	13	...........	62,99
	87	87	2,08153E+000	1,59634E+001	0,00000E+000	1,56695E+000	-7,08843E-006	13	...........	62,99
	88	88	2,08157E+000	1,59634E+001	0,00000E+000	1,56695E+000	-8,53843E-006	13	...........	62,99
	89	89	2,08163E+000	1,59636E+001	0,00000E+000	1,56695E+000	-8,43843E-006	13	...........	62,99
	90	90	2,08168E+000	1,59635E+001	0,00000E+000	1,56695E+000	-9,23843E-006	13	...........	62,98
	91	91	2,08173E+000	1,59636E+001	0,00000E+000	1,56695E+000	-1,14384E-005	13	...........	62,98
	92	92	2,08177E+000	1,59635E+001	0,00000E+000	1,56695E+000	-1,20051E-005	13	...........	62,98
	93	93	2,08177E+000	1,59636E+001	0,00000E+000	1,56695E+000	-1,03551E-005	13	...........	62,98
	94	94	2,08184E+000	1,59635E+001	0,00000E+000	1,56695E+000	-1,09718E-005	13	...........	62,98
	95	95	2,08188E+000	1,59634E+001	0,00000E+000	1,56695E+000	-1,06884E-005	13	...........	62,97
	96	96	2,08188E+000	1,59636E+001	0,00000E+000	1,56695E+000	-1,16718E-005	13	...........	62,98
	97	97	2,08190E+000	1,59636E+001	0,00000E+000	1,56695E+000	-1,14884E-005	13	...........	62,97
	98	98	2,08192E+000	1,59636E+001	0,00000E+000	1,56695E+000	-1,12384E-005	13	...........	62,96
	99	99	2,08194E+000	1,59636E+001	0,00000E+000	1,56695E+000	-1,08884E-005	13	...........	62,96
	100	100	2,08197E+000	1,59636E+001	0,00000E+000	1,56695E+000	-1,07718E-005	13	...........	62,96
	101	101	2,08198E+000	1,59636E+001	0,00000E+000	1,56695E+000	-1,08051E-005	13	...........	62,96
	102	102	2,08196E+000	1,59636E+001	0,00000E+000	1,56695E+000	-1,36051E-005	13	...........	62,95
	103	103	2,08200E+000	1,59636E+001	0,00000E+000	1,56695E+000	-1,32051E-005	13	...........	62,95
	104	104	2,08201E+000	1,59635E+001	0,00000E+000	1,56695E+000	-1,24718E-005	13	...........	62,95
	105	105	2,08202E+000	1,59635E+001	0,00000E+000	1,56695E+000	-1,08384E-005	13	...........	62,94
	106	106	2,08203E+000	1,59636E+001	0,00000E+000	1,56695E+000	-1,29551E-005	13	...........	62,94
	107	107	2,08205E+000	1,59635E+001	0,00000E+000	1,56695E+000	-1,04718E-005	13	...........	62,94
	108	108	2,08207E+000	1,59636E+001	0,00000E+000	1,56695E+000	-1,14718E-005	13	...........	62,93
	109	109	2,08209E+000	1,59635E+001	0,00000E+000	1,56695E+000	-1,43884E-005	13	...........	62,93
	110	110	2,08212E+000	1,59636E+001	0,00000E+000	1,56695E+000	-1,19384E-005	13	...........	62,93
	111	111	2,08212E+000	1,59636E+001	0,00000E+000	1,56695E+000	-1,25884E-005	13	...........	62,92
	112	112	2,08213E+000	1,59636E+001	0,00000E+000	1,56695E+000	-1,15551E-005	13	...........	62,93
	113	113	2,08217E+000	1,59635E+001	0,00000E+000	1,56695E+000	-1,05051E-005	13	...........	62,93
	114	114	2,08218E+000	1,59635E+001	0,00000E+000	1,56695E+000	-8,33843E-006	13	...........	62,92
	115	115	2,08220E+000	1,59634E+001	0,00000E+000	1,56695E+000	-8,67176E-006	13	...........	62,92
	116	116	2,08224E+000	1,59635E+001	0,00000E+000	1,56695E+000	-9,67176E-006	13	...........	62,91
	117	117	2,08228E+000	1,59635E+001	0,00000E+000	1,56695E+000	-1,14218E-005	13	...........	62,90
	118	118	2,08231E+000	1,59636E+001	0,00000E+000	1,56695E+000	-1,15384E-005	13	...........	62,90
	119	119	2,08234E+000	1,59635E+001	0,00000E+000	1,56695E+000	-9,63843E-006	13	...........	62,89
	120	120	2,08235E+000	1,59634E+001	0,00000E+000	1,56695E+000	-7,60510E-006	13	...........	62,88
	121	121	2,08237E+000	1,59636E+001	0,00000E+000	1,56695E+000	-1,04384E-005	13	...........	62,88
	122	122	2,08242E+000	1,59635E+001	0,00000E+000	1,56695E+000	-1,06884E-005	13	...........	62,87
	123	123	2,08246E+000	1,59635E+001	0,00000E+000	1,56695E+000	-8,10510E-006	13	...........	62,88
	124	124	2,08247E+000	1,59635E+001	0,00000E+000	1,56695E+000	-8,13843E-006	13	...........	62,87
	125	125	2,08248E+000	1,59634E+001	0,00000E+000	1,56695E+000	-7,42176E-006	13	...........	62,87
	126	126	2,06755E+000	1,49637E+001	0,00000E+000	1,46900E+000	4,31157E-006	13	...........	62,86
	127	127	2,06756E+000	1,49636E+001	0,00000E+000	1,46900E+000	2,34491E-006	13	...........	62,86
	128	128	2,06758E+000	1,49637E+001	0,00000E+000	1,46900E+000	1,52823E-006	13	...........	62,86
	129	129	2,06758E+000	1,49635E+001	0,00000E+000	1,46900E+000	1,49490E-006	13	...........	62,85
	130	130	2,06758E+000	1,49635E+001	0,00000E+000	1,46900E+000	1,92823E-006	13	...........	62,85
	131	131	2,06759E+000	1,49636E+001	0,00000E+000	1,46900E+000	1,06157E-006	13	...........	62,85
	132	132	2,06760E+000	1,49637E+001	0,00000E+000	1,46900E+000	4,12824E-006	13	...........	62,85
	133	133	2,06761E+000	1,49635E+001	0,00000E+000	1,46900E+000	2,69491E-006	13	...........	62,85
	134	134	2,06761E+000	1,49637E+001	0,00000E+000	1,46900E+000	4,11157E-006	13	...........	62,85
	135	135	2,06760E+000	1,49637E+001	0,00000E+000	1,46900E+000	2,46157E-006	13	...........	62,84
	136	136	2,06761E+000	1,49637E+001	0,00000E+000	1,46900E+000	-5,38428E-007	13	...........	62,84
	137	137	2,06761E+000	1,49637E+001	0,00000E+000	1,46900E+000	-2,38429E-007	13	...........	62,84
	138	138	2,06760E+000	1,49636E+001	0,00000E+000	1,46900E+000	1,71157E-006	13	...........	62,84
	139	139	2,06759E+000	1,49637E+001	0,00000E+000	1,46900E+000	5,94904E-007	13	...........	62,84
	140	140	2,06760E+000	1,49636E+001	0,00000E+000	1,46900E+000	6,78236E-007	13	...........	62,84
	141	141	2,06759E+000	1,49636E+001	0,00000E+000	1,46900E+000	2,01157E-006	13	...........	62,84
	142	142	2,06760E+000	1,49637E+001	0,00000E+000	1,46900E+000	4,44490E-006	13	...........	62,84
	143	143	2,06760E+000	1,49637E+001	0,00000E+000	1,46900E+000	7,78236E-007	13	...........	62,84
	144	144	2,06759E+000	1,49637E+001	0,00000E+000	1,46900E+000	1,52823E-006	13	...........	62,85
	145	145	2,06760E+000	1,49637E+001	0,00000E+000	1,46900E+000	1,61570E-007	13	...........	62,84
	146	146	2,06760E+000	1,49636E+001	0,00000E+000	1,46900E+000	-7,55095E-007	13	...........	62,85
	147	147	2,06760E+000	1,49638E+001	0,00000E+000	1,46900E+000	3,49490E-006	13	...........	62,85
	148	148	2,06759E+000	1,49637E+001	0,00000E+000	1,46900E+000	2,09490E-006	13	...........	62,85
	149	149	2,06758E+000	1,49636E+001	0,00000E+000	1,46900E+000	3,21157E-006	13	...........	62,85
	150	150	2,06760E+000	1,49637E+001	0,00000E+000	1,46900E+000	-2,55095E-007	13	...........	62,86
	151	151	2,06758E+000	1,49637E+001	0,00000E+000	1,46900E+000	2,14490E-006	13	...........	62,85
	152	152	2,06758E+000	1,49636E+001	0,00000E+000	1,46900E+000	-1,47177E-006	13	...........	62,85
	153	153	2,06757E+000	1,49637E+001	0,00000E+000	1,46900E+000	9,11572E-007	13	...........	62,86
	154	154	2,06758E+000	1,49637E+001	0,00000E+000	1,46900E+000	6,28235E-007	13	...........	62,86
	155	155	2,06758E+000	1,49636E+001	0,00000E+000	1,46900E+000	3,39491E-006	13	...........	62,85
	156	156	2,06758E+000	1,49636E+001	0,00000E+000	1,46900E+000	9,94904E-007	13	...........	62,85
	157	157	2,06757E+000	1,49636E+001	0,00000E+000	1,46900E+000	1,69490E-006	13	...........	62,86
	158	158	2,06756E+000	1,49635E+001	0,00000E+000	1,46900E+000	1,22824E-006	13	...........	62,86
	159	159	2,06756E+000	1,49635E+001	0,00000E+000	1,46900E+000	3,78237E-007	13	...........	62,86
	160	160	2,06756E+000	1,49637E+001	0,00000E+000	1,46900E+000	1,64490E-006	13	...........	62,86
	161	161	2,06756E+000	1,49637E+001	0,00000E+000	1,46900E+000	1,94490E-006	13	...........	62,86
	162	162	2,06755E+000	1,49638E+001	0,00000E+000	1,46900E+000	1,41157E-006	13	...........	62,87
	163	163	2,06755E+000	1,49638E+001	0,00000E+000	1,46900E+000	2,01157E-006	13	...........	62,87
	164	164	2,06755E+000	1,49637E+001	0,00000E+000	1,46900E+000	1,61157E-006	13	...........	62,87
	165	165	2,06756E+000	1,49636E+001	0,00000E+000	1,46900E+000	2,19490E-006	13	...........	62,87
	166	166	2,06755E+000	1,49637E+001	0,00000E+000	1,46900E+000	2,84490E-006	13	...........	62,88
	167	167	2,06754E+000	1,49637E+001	0,00000E+000	1,46900E+000	-6,88433E-007	13	...........	62,88
	168	168	2,06754E+000	1,49636E+001	0,00000E+000	1,46900E+000	2,67823E-006	13	...........	62,88
	169	169	2,06755E+000	1,49636E+001	0,00000E+000	1,46900E+000	-1,47177E-006	13	...........	62,88
	170	170	2,06755E+000	1,49637E+001	0,00000E+000	1,46900E+000	2,66157E-006	13	...........	62,88
	171	171	2,06755E+000	1,49636E+001	0,00000E+000	1,46900E+000	4,52824E-006	13	...........	62,88
	172	172	2,06756E+000	1,49637E+001	0,00000E+000	1,46900E+000	2,12824E-006	13	...........	62,89
	173	173	2,06757E+000	1,49638E+001	0,00000E+000	1,46900E+000	1,84490E-006	13	...........	62,89
	174	174	2,06757E+000	1,49638E+001	0,00000E+000	1,46900E+000	2,57824E-006	13	...........	62,89
	175	175	2,06757E+000	1,49636E+001	0,00000E+000	1,46900E+000	6,94905E-007	13	...........	62,89
	176	176	2,06757E+000	1,49637E+001	0,00000E+000	1,46900E+000	3,19490E-006	13	...........	62,89
	177	177	2,06757E+000	1,49637E+001	0,00000E+000	1,46900E+000	2,51157E-006	13	...........	62,89
	178	178	2,06757E+000	1,49638E+001	0,00000E+000	1,46900E+000	1,62824E-006	13	...........	62,89
	179	179	2,06757E+000	1,49638E+001	0,00000E+000	1,46900E+000	2,67823E-006	13	...........	62,89
	180	180	2,06758E+000	1,49637E+001	0,00000E+000	1,46900E+000	1,92823E-006	13	...........	62,89
	181	181	2,06757E+000	1,49637E+001	0,00000E+000	1,46900E+000	1,51157E-006	13	...........	62,90
	182	182	2,06757E+000	1,49638E+001	0,00000E+000	1,46900E+000	1,66157E-006	13	...........	62,90
	183	183	2,06759E+000	1,49637E+001	0,00000E+000	1,46900E+000	2,39490E-006	13	...........	62,91
	184	184	2,06758E+000	1,49636E+001	0,00000E+000	1,46900E+000	1,21157E-006	13	...........	62,91
	185	185	2,06759E+000	1,49637E+001	0,00000E+000	1,46900E+000	1,44490E-006	13	...........	62,91
	186	186	2,06758E+000	1,49636E+001	0,00000E+000	1,46900E+000	4,74490E-006	13	...........	62,91
	187	187	2,06759E+000	1,49637E+001	0,00000E+000	1,46900E+000	4,36157E-006	13	...........	62,91
	188	188	2,06759E+000	1,49637E+001	0,00000E+000	1,46900E+000	3,21157E-006	13	...........	62,91
	189	189	2,06760E+000	1,49637E+001	0,00000E+000	1,46900E+000	3,97824E-006	13	...........	62,91
	190	190	2,06760E+000	1,49636E+001	0,00000E+000	1,46900E+000	1,72824E-006	13	...........	62,91
	191	191	2,06761E+000	1,49637E+001	0,00000E+000	1,46900E+000	2,16157E-006	13	...........	62,91
	192	192	2,06763E+000	1,49636E+001	0,00000E+000	1,46900E+000	3,91157E-006	13	...........	62,91
	193	193	2,06765E+000	1,49636E+001	0,00000E+000	1,46900E+000	4,94900E-007	13	...........	62,91
	194	194	2,06766E+000	1,49636E+001	0,00000E+000	1,46900E+000	2,32823E-006	13	...........	62,91
	195	195	2,06764E+000	1,49636E+001	0,00000E+000	1,46900E+000	5,94904E-007	13	...........	62,91
	196	196	2,06766E+000	1,49637E+001	0,00000E+000	1,46900E+000	1,92823E-006	13	...........	62,91
	197	197	2,06768E+000	1,49637E+001	0,00000E+000	1,46900E+000	5,44490E-006	13	...........	62,91
	198	198	2,06773E+000	1,49637E+001	0,00000E+000	1,46900E+000	9,61569E-007	13	...........	62,91
	199	199	2,06770E+000	1,49637E+001	0,00000E+000	1,46900E+000	1,82823E-006	13	...........	62,91
	200	200	2,06772E+000	1,49636E+001	0,00000E+000	1,46900E+000	2,31157E-006	13	...........	62,91
	201	201	2,06776E+000	1,49638E+001	0,00000E+000	1,46900E+000	2,72824E-006	13	...........	62,90
	202	202	2,06776E+000	1,49635E+001	0,00000E+000	1,46900E+000	4,79490E-006	13	...........	62,90
	203	203	2,06777E+000	1,49637E+001	0,00000E+000	1,46900E+000	5,97823E-006	13	...........	62,90
	204	204	2,06779E+000	1,49638E+001	0,00000E+000	1,46900E+000	1,19490E-006	13	...........	62,90
	205	205	2,06777E+000	1,49636E+001	0,00000E+000	1,46900E+000	9,78238E-007	13	...........	62,91
	206	206	2,06779E+000	1,49637E+001	0,00000E+000	1,46900E+000	1,76157E-006	13	...........	62,91
	207	207	2,06783E+000	1,49637E+001	0,00000E+000	1,46900E+000	2,31157E-006	13	...........	62,91
	208	208	2,06782E+000	1,49636E+001	0,00000E+000	1,46900E+000	1,27824E-006	13	...........	62,90
	209	209	2,06782E+000	1,49636E+001	0,00000E+000	1,46900E+000	1,32824E-006	13	...........	62,90
	210	210	2,06786E+000	1,49636E+001	0,00000E+000	1,46900E+000	1,22824E-006	13	...........	62,91
	211	211	2,06787E+000	1,49636E+001	0,00000E+000	1,46900E+000	5,61158E-006	13	...........	62,90
	212	212	2,06787E+000	1,49636E+001	0,00000E+000	1,46900E+000	1,89490E-006	13	...........	62,90
	213	213	2,06788E+000	1,49637E+001	0,00000E+000	1,46900E+000	4,28234E-007	13	...........	62,90
	214	214	2,06788E+000	1,49636E+001	0,00000E+000	1,46900E+000	6,11570E-007	13	...........	62,90
	215	215	2,06790E+000	1,49636E+001	0,00000E+000	1,46900E+000	1,64490E-006	13	...........	62,90
	216	216	2,06791E+000	1,49635E+001	0,00000E+000	1,46900E+000	3,94903E-007	13	...........	62,90
	217	217	2,06791E+000	1,49637E+001	0,00000E+000	1,46900E+000	-2,55095E-007	13	...........	62,89
	218	218	2,06792E+000	1,49635E+001	0,00000E+000	1,46900E+000	1,17824E-006	13	...........	62,90
	219	219	2,06793E+000	1,49636E+001	0,00000E+000	1,46900E+000	-2,48843E-006	13	...........	62,89
	220	220	2,06796E+000	1,49636E+001	0,00000E+000	1,46900E+000	6,15692E-008	13	...........	62,90
	221	221	2,06796E+000	1,49637E+001	0,00000E+000	1,46900E+000	2,77824E-006	13	...........	62,89
	222	222	2,06796E+000	1,49635E+001	0,00000E+000	1,46900E+000	1,07824E-006	13	...........	62,89
	223	223	2,06793E+000	1,49636E+001	0,00000E+000	1,46900E+000	4,31157E-006	13	...........	62,89
	224	224	2,06793E+000	1,49637E+001	0,00000E+000	1,46900E+000	-1,27176E-006	13	...........	62,89
	225	225	2,06794E+000	1,49637E+001	0,00000E+000	1,46900E+000	2,31157E-006	13	...........	62,90
	226	226	2,06794E+000	1,49637E+001	0,00000E+000	1,46900E+000	3,24490E-006	13	...........	62,89
	227	227	2,06793E+000	1,49637E+001	0,00000E+000	1,46900E+000	1,49490E-006	13	...........	62,89
	228	228	2,06794E+000	1,49636E+001	0,00000E+000	1,46900E+000	3,12824E-006	13	...........	62,89
	229	229	2,06794E+000	1,49637E+001	0,00000E+000	1,46900E+000	2,77824E-006	13	...........	62,89
	230	230	2,06794E+000	1,49637E+001	0,00000E+000	1,46900E+000	-2,71768E-007	13	...........	62,89
	231	231	2,06791E+000	1,49636E+001	0,00000E+000	1,46900E+000	1,19490E-006	13	...........	62,89
	232	232	2,06789E+000	1,49637E+001	0,00000E+000	1,46900E+000	1,11157E-006	13	...........	62,90
	233	233	2,06788E+000	1,49635E+001	0,00000E+000	1,46900E+000	-1,37176E-006	13	...........	62,89
	234	234	2,06788E+000	1,49637E+001	0,00000E+000	1,46900E+000	1,99490E-006	13	...........	62,89
	235	235	2,06789E+000	1,49636E+001	0,00000E+000	1,46900E+000	5,61573E-007	13	...........	62,90
	236	236	2,06787E+000	1,49636E+001	0,00000E+000	1,46900E+000	2,79490E-006	13	...........	62,90
	237	237	2,06787E+000	1,49636E+001	0,00000E+000	1,46900E+000	3,14491E-006	13	...........	62,90
	238	238	2,06787E+000	1,49636E+001	0,00000E+000	1,46900E+000	1,64490E-006	13	...........	62,91
	239	239	2,06789E+000	1,49636E+001	0,00000E+000	1,46900E+000	-2,55095E-007	13	...........	62,90
	240	240	2,06788E+000	1,49637E+001	0,00000E+000	1,46900E+000	1,81157E-006	13	...........	62,91
	241	241	2,06786E+000	1,49636E+001	0,00000E+000	1,46900E+000	3,16157E-006	13	...........	62,91
	242	242	2,06786E+000	1,49636E+001	0,00000E+000	1,46900E+000	-1,22176E-006	13	...........	62,92
	243	243	2,06786E+000	1,49636E+001	0,00000E+000	1,46900E+000	-4,55097E-007	13	...........	62,91
	244	244	2,06787E+000	1,49636E+001	0,00000E+000	1,46900E+000	-9,71762E-007	13	...........	62,90
	245	245	2,06786E+000	1,49636E+001	0,00000E+000	1,46900E+000	-8,55096E-007	13	...........	62,90
	246	246	2,06787E+000	1,49636E+001	0,00000E+000	1,46900E+000	6,11570E-007	13	...........	62,91
	247	247	2,06789E+000	1,49635E+001	0,00000E+000	1,46900E+000	-5,21763E-007	13	...........	62,91
	248	248	2,06790E+000	1,49635E+001	0,00000E+000	1,46900E+000	4,61572E-007	13	...........	62,91
	249	249	2,06793E+000	1,49636E+001	0,00000E+000	1,46900E+000	1,29490E-006	13	...........	62,91
	250	250	2,06795E+000	1,49637E+001	0,00000E+000	1,46900E+000	2,26157E-006	13	...........	62,90
