EXPLAIN
TAG	EISPOT
TITLE	LABEL	Potentiostatic EIS	Test Identifier
DATE	LABEL	6/7/2026	Date
TIME	LABEL	12:26:00	Time
NOTES	NOTES	1	Notes...
	
PSTAT	PSTAT	REF3000-46189	Potentiostat
VDC	POTEN	1,51651E+000	F	Last Measured Potential (V)
FREQINIT	QUANT	1,00000E+005	Initial Freq. (Hz)
FREQFINAL	QUANT	1,00000E-001	Final Freq. (Hz)
PTSPERDEC	QUANT	1,00000E+001	Points/decade
VAC	QUANT	5,00000E+000	AC Voltage (mV rms)
AREA	QUANT	2,50000E+001	Sample Area (cm^2)
SPEED	SELECTOR	1	Optimize for:
DRIFTCOR	SELECTOR	0	Drift Correction
THD	SELECTOR	0	THD
ZGUESS	QUANT	2,00000E-002	Estimated Z (ohms)
EOC	QUANT	0,3905098	Open Circuit (V)
SEQUENCER	TOGGLE	TRUE	Run as Sequence
PSTATMODEL	IQUANT	6	Pstat Model
PSTATSECTION	LABEL	REF30K-46189	Pstat Section
PSTATSERIALNO	LABEL	46189	Pstat Serial Number
CTRLMODE	IQUANT	1	Control Mode
ELECTROMETER	IQUANT	0	RE=0 or CS=1
IESTAB	IQUANT	0	I/E Stability
CASPEED	IQUANT	3	Control Amp Speed
CONVENTION	IQUANT	1	Current Convention
ICHRANGE	IQUANT	2	Ich Range
ICHRANGEMODE	TOGGLE	F	Ich Auto Range
ICHOFFSETENABLE	TOGGLE	T	Ich Offset Enable
ICHOFFSET	QUANT	0	Ich Offset (V)
ICHFILTER	IQUANT	3	Ich Filter
VCHRANGE	IQUANT	2	Vch Range
VCHRANGEMODE	TOGGLE	F	Vch Auto Range
VCHOFFSETENABLE	TOGGLE	T	Vch Offset Enable
VCHOFFSET	QUANT	0	Vch Offset (V)
VCHFILTER	IQUANT	3	Vch Filter
ACHRANGE	IQUANT	2	Ach Range
ACHOFFSETENABLE	TOGGLE	F	Ach Offset Enable
ACHOFFSET	QUANT	0	Ach Offset (V)
ACHFILTER	IQUANT	1	Ach Filter
IERANGELOWERLIMIT	IQUANT	13	I/E Range Lower Limit
IERANGEMODE	TOGGLE	F	I/E AutoRange
IERANGE	IQUANT	13	I/E Range
POSFEEDENABLE	TOGGLE	F	Positive Feedback IR Comp
POSFEEDRESISTANCE	QUANT	0	Positive Feedback Resistance (ohm)
ACHSELECT	IQUANT	4	Ach Select
SENSECABLEID	IQUANT	14	Sense Cable ID
PWRCABLEID	IQUANT	8	Power Cable ID
DCCALDATE	LABEL	10/1/2025	DC Calibration Date
ACCALDATE	LABEL	10/1/2025	AC Calibration Date
THERMOSELECT	IQUANT	1	Thermo Select
FRAMEWORKVERSION	LABEL	7.10.1	Framework Version
INSTRUMENTVERSION	LABEL	4.80	Instrument Version
COMMVERSION	LABEL	5.10	Communications Version
CPUPLDVERSION	LABEL	6.00	CPU PLD Version
CTRLPLDVERSION	LABEL	3.21	CTRL PLD Version
PSTATPLDVERSION	LABEL	0.00	PSTAT PLD Version
BOOSTERDCCALDATE	LABEL	10/1/2025	Booster DC Calibration Date
ZCURVE	TABLE
	Pt	Time	Freq	Zreal	Zimag	Zsig	Zmod	Zphz	Idc	Vdc	IERange	Imod	Vmod	Temp
	#	s	Hz	ohm	ohm	V	ohm	°	A	V	#	A	V	°C
	0	3	100078,1	0,0138093	0,0067596	1	0,0153749	26,08166	1,302665	1,514684	13	0,326459	0,004998	64,83703
	1	5	79453,13	0,0135704	0,0055421	1	0,0146585	22,21481	1,303174	1,514691	13	0,4461924	0,0065189	64,82078
	2	7	63140,62	0,0133781	0,0045519	1	0,0141313	18,79091	1,303485	1,514687	13	0,4544794	0,0064048	64,81474
	3	9	50203,12	0,0132007	0,0037377	1	0,0137197	15,80897	1,300951	1,514688	13	0,457439	0,0062619	64,81432
	4	10	39890,62	0,0130542	0,0030609	1	0,0134083	13,19621	1,302146	1,514686	13	0,4594439	0,0061498	64,81434
	5	13	31640,63	0,0129349	0,0024976	1	0,0131739	10,92853	1,301333	1,514695	13	0,4581113	0,0060275	64,79546
	6	15	25171,88	0,0128391	0,0020418	1	0,0130004	9,03615	1,301418	1,514693	13	0,4530392	0,0058845	64,80477
	7	17	20015,62	0,0127611	0,0016606	1	0,0128687	7,414446	1,302353	1,514697	13	0,4463609	0,0057406	64,79733
	8	18	15890,62	0,0127005	0,0013426	1	0,0127713	6,034578	1,303868	1,514701	13	0,4399734	0,0056168	64,8117
	9	20	12609,38	0,0126487	0,0010823	1	0,0126949	4,890695	1,303077	1,514687	13	0,4296005	0,0054523	64,81555
	10	22	10078,13	0,0126118	0,0008706	1	0,0126418	3,948993	1,30375	1,514688	13	0,4209166	0,0053202	64,81383
	11	23	8015,625	0,0125832	0,0006925	1	0,0126022	3,150219	1,303388	1,514703	13	0,4151197	0,0052309	64,81271
	12	25	6328,125	0,0125643	0,0005387	1	0,0125759	2,454905	1,305052	1,514686	13	0,4109516	0,0051677	64,82661
	13	26	5015,625	0,0125471	0,000414	1	0,0125539	1,889666	1,305618	1,514703	13	0,4069194	0,0051082	64,81113
	14	28	3984,375	0,0125295	0,0003012	1	0,0125331	1,376933	1,305522	1,514703	13	0,4044158	0,0050684	64,8188
	15	30	3170,956	0,012526	0,0002081	1	0,0125278	0,951791	1,305109	1,514695	13	0,4028078	0,0050462	64,82413
	16	31	2527,573	0,012521	0,0001224	1	0,0125216	0,5599713	1,307625	1,514696	13	0,401496	0,0050273	64,83049
	17	33	1976,103	0,0125237	3,27994E-005	1	0,0125238	0,1500561	1,308181	1,514701	13	0,4006471	0,0050176	64,84483
	18	35	1577,524	0,0125343	-4,24818E-005	1	0,0125344	-0,194188	1,306964	1,51469	13	0,3997247	0,0050103	64,8471
	19	36	1265,625	0,0125553	-0,0001139	1	0,0125558	-0,5198023	1,307417	1,51469	13	0,3989811	0,0050095	64,84464
	20	38	998,264	0,0125734	-0,0001893	1	0,0125749	-0,8626299	1,308486	1,514697	13	0,397618	0,005	64,84916
	21	39	796,875	0,0126059	-0,000261	1	0,0126086	-1,18594	1,307047	1,514696	13	0,3969955	0,0050055	64,85167
	22	41	627,7902	0,0126438	-0,0003402	1	0,0126484	-1,541216	1,307012	1,514699	13	0,3953085	0,005	64,84838
	23	42	505,5147	0,0126824	-0,0004168	1	0,0126892	-1,882401	1,307566	1,514687	13	0,3881	0,0049628	64,84406
	24	44	397,9953	0,012735	-0,0005048	1	0,012745	-2,270096	1,307604	1,514691	13	0,3938893	0,0050428	64,84585
	25	46	315,5048	0,0127941	-0,0006006	1	0,0128082	-2,687693	1,307359	1,514682	13	0,3899932	0,0050086	64,84693
	26	47	252,4038	0,0128599	-0,0006997	1	0,012879	-3,114281	1,307299	1,514678	13	0,387425	0,004998	64,85082
	27	49	198,6229	0,0129407	-0,0008229	1	0,0129668	-3,638355	1,308857	1,514692	13	0,3848535	0,0049954	64,84931
	28	50	158,3615	0,0130319	-0,0009562	1	0,0130669	-4,196589	1,308333	1,514694	13	0,3819392	0,0049939	64,84508
	29	52	125,558	0,0131424	-0,0011097	1	0,0131891	-4,826518	1,309139	1,514693	13	0,3786712	0,0049963	64,8452
	30	53	100,4464	0,0132675	-0,00128	1	0,0133291	-5,510613	1,308967	1,514695	13	0,3747106	0,0049958	64,84972
	31	55	79,00281	0,0134274	-0,0014848	1	0,0135093	-6,310017	1,307527	1,514701	13	0,3696031	0,0049938	64,84932
	32	57	63,3446	0,0136025	-0,0016955	1	0,0137078	-7,10523	1,307916	1,5147	13	0,3641469	0,0049921	64,8423
	33	58	50,22321	0,013824	-0,0019427	1	0,0139598	-7,999487	1,307189	1,514687	13	0,3569707	0,0049836	64,84125
	34	60	38,42213	0,0141323	-0,0022591	1	0,0143117	-9,082208	1,30887	1,514681	13	0,3463919	0,0049576	64,83767
	35	61	31,25	0,0144047	-0,0025161	1	0,0146228	-9,90787	1,307524	1,514692	13	0,3366007	0,0049222	64,8152
	36	63	24,93351	0,0147737	-0,0027993	1	0,0150366	-10,72927	1,309158	1,514683	13	0,320619	0,0048211	64,81812
	37	65	19,86229	0,0151854	-0,0031215	1	0,0155029	-11,61576	1,307072	1,514685	13	0,3485264	0,0054032	64,8279
	38	66	15,625	0,0156598	-0,0034463	1	0,0160345	-12,41147	1,303282	1,514688	13	0,3117837	0,0049993	64,82376
	39	68	12,40079	0,0161705	-0,0037896	1	0,0166086	-13,18932	1,302092	1,51468	13	0,3011792	0,0050022	64,81383
	40	69	9,93114	0,0165917	-0,004108	1	0,0170927	-13,90632	1,305296	1,514675	13	0,2925428	0,0050004	64,82597
	41	71	7,944915	0,0170919	-0,0045054	1	0,0176757	-14,76735	1,302816	1,514676	13	0,282959	0,0050015	64,81495
	42	73	6,317385	0,0176439	-0,0049783	1	0,0183328	-15,75672	1,30362	1,514673	13	0,2725052	0,0049958	64,80531
	43	75	5,008013	0,0182833	-0,0055189	1	0,0190981	-16,79683	1,303852	1,514678	13	0,2618308	0,0050005	64,8054
	44	77	3,945707	0,0190906	-0,0061919	1	0,0200696	-17,97023	1,304462	1,514679	13	0,2492779	0,0050029	64,79617
	45	80	3,158693	0,0200007	-0,0068531	1	0,0211422	-18,91367	1,306629	1,514685	13	0,2363575	0,0049971	64,80418
	46	83	2,504006	0,0211942	-0,007597	1	0,0225147	-19,72016	1,304868	1,514679	13	0,2152456	0,0048528	64,8093
	47	86	1,998082	0,0226188	-0,0082256	1	0,024068	-19,98443	1,306587	1,514684	13	0,2108712	0,0050799	64,81335
	48	90	1,584686	0,0242997	-0,008692	1	0,0258074	-19,68205	1,308196	1,514685	13	0,1953241	0,0050437	64,82436
	49	96	1,266892	0,0261065	-0,0088013	1	0,0275501	-18,6305	1,30892	1,514685	13	0,1819881	0,0050157	64,8133
	50	103	0,999041	0,0280855	-0,0085735	1	0,029365	-16,97555	1,308886	1,514682	13	0,1704612	0,0050068	64,82412
	51	108	0,7923428	0,0297976	-0,0080089	1	0,0308551	-15,04416	1,30908	1,514682	13	0,1621638	0,0050043	64,82333
	52	116	0,6334459	0,0311808	-0,0072084	1	0,0320032	-13,01699	1,309168	1,514685	13	0,156308	0,0050028	64,83363
	53	126	0,5040323	0,0324151	-0,0062199	1	0,0330065	-10,86204	1,309481	1,514684	13	0,1513864	0,004997	64,85472
	54	135	0,400641	0,0332192	-0,0052672	1	0,0336342	-9,009746	1,309567	1,514684	13	0,1488242	0,0050058	64,86324
	55	149	0,316723	0,0338121	-0,0043078	1	0,0340854	-7,260664	1,307575	1,514685	13	0,1466326	0,0049982	64,85088
	56	166	0,2520161	0,0342537	-0,0036234	1	0,0344448	-6,038357	1,306697	1,514686	13	0,1451936	0,0050012	64,83706
	57	184	0,2003205	0,0346026	-0,0028477	1	0,0347196	-4,704655	1,306929	1,514683	13	0,1439787	0,0049989	64,87014
	58	210	0,1588983	0,0347053	-0,0024156	1	0,0347893	-3,981503	1,305159	1,514687	13	0,1437453	0,0050008	64,82799
	59	236	0,1260081	0,0347744	-0,0019132	1	0,034827	-3,149045	1,30593	1,514685	13	0,1435532	0,0049995	64,83772
	60	274	0,1001603	0,0349729	-0,0015715	1	0,0350082	-2,572787	1,306053	1,514687	13	0,1428452	0,0050008	64,87785
