EXPLAIN
TAG	EISPOT
TITLE	LABEL	Potentiostatic EIS	Test Identifier
DATE	LABEL	6/7/2026	Date
TIME	LABEL	12:42:46	Time
NOTES	NOTES	1	Notes...
	
PSTAT	PSTAT	REF3000-46189	Potentiostat
VDC	POTEN	1,81642E+000	F	Last Measured Potential (V)
FREQINIT	QUANT	1,00000E+005	Initial Freq. (Hz)
FREQFINAL	QUANT	1,00000E-001	Final Freq. (Hz)
PTSPERDEC	QUANT	1,00000E+001	Points/decade
VAC	QUANT	5,00000E+000	AC Voltage (mV rms)
AREA	QUANT	2,50000E+001	Sample Area (cm^2)
SPEED	SELECTOR	1	Optimize for:
DRIFTCOR	SELECTOR	0	Drift Correction
THD	SELECTOR	0	THD
ZGUESS	QUANT	2,00000E-002	Estimated Z (ohms)
EOC	QUANT	0,3905098	Open Circuit (V)
SEQUENCER	TOGGLE	TRUE	Run as Sequence
PSTATMODEL	IQUANT	6	Pstat Model
PSTATSECTION	LABEL	REF30K-46189	Pstat Section
PSTATSERIALNO	LABEL	46189	Pstat Serial Number
CTRLMODE	IQUANT	1	Control Mode
ELECTROMETER	IQUANT	0	RE=0 or CS=1
IESTAB	IQUANT	0	I/E Stability
CASPEED	IQUANT	3	Control Amp Speed
CONVENTION	IQUANT	1	Current Convention
ICHRANGE	IQUANT	2	Ich Range
ICHRANGEMODE	TOGGLE	F	Ich Auto Range
ICHOFFSETENABLE	TOGGLE	T	Ich Offset Enable
ICHOFFSET	QUANT	0	Ich Offset (V)
ICHFILTER	IQUANT	3	Ich Filter
VCHRANGE	IQUANT	2	Vch Range
VCHRANGEMODE	TOGGLE	F	Vch Auto Range
VCHOFFSETENABLE	TOGGLE	T	Vch Offset Enable
VCHOFFSET	QUANT	0	Vch Offset (V)
VCHFILTER	IQUANT	3	Vch Filter
ACHRANGE	IQUANT	2	Ach Range
ACHOFFSETENABLE	TOGGLE	F	Ach Offset Enable
ACHOFFSET	QUANT	0	Ach Offset (V)
ACHFILTER	IQUANT	1	Ach Filter
IERANGELOWERLIMIT	IQUANT	13	I/E Range Lower Limit
IERANGEMODE	TOGGLE	F	I/E AutoRange
IERANGE	IQUANT	13	I/E Range
POSFEEDENABLE	TOGGLE	F	Positive Feedback IR Comp
POSFEEDRESISTANCE	QUANT	0	Positive Feedback Resistance (ohm)
ACHSELECT	IQUANT	4	Ach Select
SENSECABLEID	IQUANT	14	Sense Cable ID
PWRCABLEID	IQUANT	8	Power Cable ID
DCCALDATE	LABEL	10/1/2025	DC Calibration Date
ACCALDATE	LABEL	10/1/2025	AC Calibration Date
THERMOSELECT	IQUANT	1	Thermo Select
FRAMEWORKVERSION	LABEL	7.10.1	Framework Version
INSTRUMENTVERSION	LABEL	4.80	Instrument Version
COMMVERSION	LABEL	5.10	Communications Version
CPUPLDVERSION	LABEL	6.00	CPU PLD Version
CTRLPLDVERSION	LABEL	3.21	CTRL PLD Version
PSTATPLDVERSION	LABEL	0.00	PSTAT PLD Version
BOOSTERDCCALDATE	LABEL	10/1/2025	Booster DC Calibration Date
ZCURVE	TABLE
	Pt	Time	Freq	Zreal	Zimag	Zsig	Zmod	Zphz	Idc	Vdc	IERange	Imod	Vmod	Temp
	#	s	Hz	ohm	ohm	V	ohm	°	A	V	#	A	V	°C
	0	4	100078,1	0,01375	0,0066752	1	0,0152846	25,89513	17,46282	1,813594	13	0,3284723	0,0049993	64,43001
	1	5	79453,13	0,0134989	0,0054752	1	0,014567	22,07765	17,45705	1,813585	13	0,4505603	0,0065417	64,42634
	2	7	63140,62	0,0132946	0,0044971	1	0,0140346	18,68898	17,4512	1,813579	13	0,4550778	0,0063694	64,44081
	3	9	50203,12	0,0131099	0,0036988	1	0,0136217	15,75592	17,45216	1,813585	13	0,4574193	0,006217	64,44546
	4	11	39890,62	0,0129642	0,0030281	1	0,0133131	13,14707	17,45051	1,813553	13	0,4666211	0,0062015	64,44667
	5	12	31640,63	0,0128408	0,0024725	1	0,0130766	10,89892	17,4538	1,813584	13	0,4645053	0,0060665	64,44952
	6	14	25171,88	0,0127405	0,0020254	1	0,0129005	9,033045	17,45401	1,813587	13	0,4605075	0,0059355	64,45725
	7	15	20015,62	0,0126672	0,0016513	1	0,0127744	7,427286	17,44866	1,813578	13	0,4547858	0,0058061	64,44761
	8	17	15890,62	0,0125995	0,0013424	1	0,0126708	6,081515	17,44445	1,813589	13	0,4492671	0,0056903	64,45687
	9	19	12609,38	0,0125496	0,0010889	1	0,0125968	4,958865	17,44587	1,813569	13	0,4391731	0,0055307	64,46094
	10	21	10078,13	0,0125134	0,0008914	1	0,0125451	4,074554	17,44737	1,81357	13	0,4295552	0,0053879	64,46908
	11	22	8015,625	0,0124824	0,000716	1	0,0125029	3,2828	17,45053	1,813571	13	0,4233513	0,0052926	64,45955
	12	24	6328,125	0,0124571	0,0005711	1	0,0124701	2,624795	17,44991	1,813575	13	0,418419	0,0052174	64,47359
	13	25	5015,625	0,0124293	0,0004483	1	0,0124374	2,065828	17,45131	1,813583	13	0,413445	0,005142	64,46401
	14	27	3984,375	0,0124166	0,0003455	1	0,0124214	1,593813	17,45301	1,813587	13	0,4106892	0,0051012	64,46093
	15	29	3170,956	0,0124056	0,0002612	1	0,0124084	1,206059	17,44844	1,813573	13	0,4079319	0,0050617	64,47301
	16	31	2527,573	0,0123965	0,000185	1	0,0123979	0,8549517	17,44932	1,813595	13	0,4065903	0,0050408	64,45952
	17	32	1976,103	0,0123954	0,0001077	1	0,0123959	0,4976802	17,45	1,813553	13	0,4052745	0,0050237	64,47021
	18	34	1577,524	0,0123973	5,00104E-005	1	0,0123974	0,2311276	17,4511	1,813583	13	0,4043243	0,0050126	64,46916
	19	35	1265,625	0,0124104	-9,704255E-006	1	0,0124104	-0,0448021	17,44682	1,813573	13	0,4038906	0,0050124	64,46941
	20	37	998,264	0,0124181	-6,495919E-005	1	0,0124183	-0,2997124	17,44705	1,813579	13	0,4027616	0,0050016	64,4765
	21	39	796,875	0,0124458	-0,0001187	1	0,0124464	-0,5465891	17,44718	1,813572	13	0,4021997	0,0050059	64,47565
	22	40	627,7902	0,0124751	-0,0001659	1	0,0124762	-0,7620425	17,44257	1,813574	13	0,4004545	0,0049962	64,47003
	23	42	505,5147	0,0125008	-0,0002161	1	0,0125027	-0,990354	17,43951	1,813558	13	0,393528	0,0049582	64,47104
	24	43	397,9953	0,012538	-0,0002655	1	0,0125408	-1,212912	17,44012	1,813567	13	0,4000513	0,0050396	64,4693
	25	45	315,5048	0,0125828	-0,0003121	1	0,0125867	-1,42079	17,43825	1,813561	13	0,3966767	0,0050063	64,46633
	26	46	252,4038	0,0126273	-0,0003587	1	0,0126324	-1,626954	17,43711	1,813573	13	0,3949578	0,0049976	64,45564
	27	48	198,6229	0,0126862	-0,0004114	1	0,0126928	-1,857464	17,43593	1,813569	13	0,3931998	0,0049959	64,46101
	28	49	158,3615	0,0127472	-0,0004636	1	0,0127556	-2,082686	17,43711	1,813578	13	0,3913861	0,0049955	64,47171
	29	51	125,558	0,0128191	-0,0005198	1	0,0128296	-2,322089	17,43445	1,813557	13	0,3893345	0,004997	64,46309
	30	53	100,4464	0,0129	-0,0005703	1	0,0129126	-2,531294	17,43337	1,81356	13	0,3866771	0,0049942	64,44441
	31	54	79,00281	0,0129987	-0,0006277	1	0,0130138	-2,764577	17,43294	1,813567	13	0,3837556	0,0049949	64,44499
	32	56	63,3446	0,0131012	-0,0006787	1	0,0131188	-2,965551	17,42758	1,813576	13	0,3805766	0,0049932	64,44265
	33	58	50,22321	0,0132266	-0,0007283	1	0,0132466	-3,151752	17,43245	1,813578	13	0,3761651	0,0049832	64,44491
	34	60	38,42213	0,0133818	-0,0007604	1	0,0134034	-3,25235	17,43313	1,81357	13	0,3697085	0,0049555	64,42693
	35	61	31,25	0,0135107	-0,0007835	1	0,0135334	-3,318985	17,42812	1,813574	13	0,3637596	0,004923	64,42782
	36	63	24,93351	0,013662	-0,0007898	1	0,0136848	-3,308547	17,42322	1,813551	13	0,352169	0,0048194	64,43194
	37	65	19,86229	0,0137716	-0,0007487	1	0,0137919	-3,111983	17,42743	1,813568	13	0,3919536	0,0054058	64,43308
	38	66	15,625	0,0139531	-0,0007397	1	0,0139727	-3,034795	17,42291	1,813559	13	0,3577236	0,0049984	64,42786
	39	68	12,40079	0,0140415	-0,000684	1	0,0140581	-2,789025	17,42456	1,813553	13	0,3554824	0,0049974	64,42397
	40	69	9,93114	0,0141764	-0,0006226	1	0,0141901	-2,514524	17,42712	1,813552	13	0,3526919	0,0050047	64,42134
	41	71	7,944915	0,0142559	-0,0005539	1	0,0142667	-2,224997	17,42673	1,813546	13	0,3506336	0,0050024	64,41832
	42	73	6,317385	0,0143628	-0,0005192	1	0,0143722	-2,070337	17,42623	1,813563	13	0,3475791	0,0049955	64,40685
	43	75	5,008013	0,0143268	-0,0005146	1	0,014336	-2,057288	17,42339	1,813556	13	0,348454	0,0049954	64,39941
	44	77	3,945707	0,0144136	-0,0004067	1	0,0144193	-1,616197	17,42041	1,813573	13	0,3468928	0,005002	64,39822
	45	80	3,158693	0,0144899	-0,0003371	1	0,0144939	-1,33252	17,41794	1,813557	13	0,3450024	0,0050004	64,38224
	46	84	2,504006	0,0145238	-0,0003234	1	0,0145274	-1,275724	17,40876	1,813559	13	0,3331078	0,0048458	64,37878
	47	88	1,998082	0,0145725	-0,0002777	1	0,0145751	-1,091864	17,40447	1,813563	13	0,3492773	0,0050954	64,36868
	48	92	1,584686	0,0145603	-0,0002518	1	0,0145624	-0,990671	17,40326	1,813559	13	0,3456648	0,0050366	64,35853
	49	97	1,266892	0,0146121	-0,0002529	1	0,0146143	-0,991646	17,39812	1,813559	13	0,3429756	0,0050142	64,34949
	50	103	0,999041	0,0146615	-0,0002119	1	0,0146631	-0,8281137	17,40445	1,813561	13	0,3413212	0,005006	64,33698
	51	109	0,7923428	0,0146832	-0,0002085	1	0,0146847	-0,8134355	17,40314	1,813565	13	0,3405243	0,0050012	64,33683
	52	117	0,6334459	0,0147038	-0,0001914	1	0,014705	-0,7457086	17,40102	1,813565	13	0,3401164	0,0050019	64,3317
	53	126	0,5040323	0,0147352	-0,0001977	1	0,0147365	-0,7688115	17,40285	1,813565	13	0,3394965	0,0050033	64,33176
	54	138	0,400641	0,0147215	-0,0001939	1	0,0147228	-0,7546714	17,39531	1,813561	13	0,3393445	0,0049963	64,32559
	55	149	0,316723	0,0147541	-0,0001518	1	0,0147549	-0,5896013	17,38494	1,813561	13	0,339342	0,0050071	64,31538
	56	164	0,2520161	0,01476	-0,0001399	1	0,0147607	-0,5432421	17,37693	1,813561	13	0,338421	0,0049954	64,29752
	57	185	0,2003205	0,0148329	-0,00015	1	0,0148337	-0,5795562	17,37044	1,813557	13	0,337442	0,0050055	64,26112
	58	211	0,1588983	0,0148928	-0,0001317	1	0,0148934	-0,50673	17,36818	1,813556	13	0,3353975	0,0049952	64,29356
	59	243	0,1260081	0,0148412	-0,0001526	1	0,014842	-0,5892339	17,37522	1,813553	13	0,3369059	0,0050004	64,37288
	60	282	0,1001603	0,0148672	-0,0001425	1	0,0148679	-0,5489983	17,3811	1,813552	13	0,3362677	0,0049996	64,43181
