EXPLAIN
TAG	EISPOT
TITLE	LABEL	Potentiostatic EIS	Test Identifier
DATE	LABEL	3/4/2026	Date
TIME	LABEL	3:42:02	Time
NOTES	NOTES	1	Notes...
	
PSTAT	PSTAT	REF3000-46189	Potentiostat
VDC	POTEN	2,37525E+000	F	Last Measured Potential (V)
FREQINIT	QUANT	1,00000E+005	Initial Freq. (Hz)
FREQFINAL	QUANT	1,00000E-001	Final Freq. (Hz)
PTSPERDEC	QUANT	1,00000E+001	Points/decade
VAC	QUANT	5,00000E+000	AC Voltage (mV rms)
AREA	QUANT	2,50000E+001	Sample Area (cm^2)
SPEED	SELECTOR	1	Optimize for:
DRIFTCOR	SELECTOR	0	Drift Correction
THD	SELECTOR	0	THD
ZGUESS	QUANT	2,00000E-002	Estimated Z (ohms)
EOC	QUANT	0,0049827	Open Circuit (V)
SEQUENCER	TOGGLE	TRUE	Run as Sequence
PSTATMODEL	IQUANT	6	Pstat Model
PSTATSECTION	LABEL	REF30K-46189	Pstat Section
PSTATSERIALNO	LABEL	46189	Pstat Serial Number
CTRLMODE	IQUANT	1	Control Mode
ELECTROMETER	IQUANT	0	RE=0 or CS=1
IESTAB	IQUANT	0	I/E Stability
CASPEED	IQUANT	3	Control Amp Speed
CONVENTION	IQUANT	1	Current Convention
ICHRANGE	IQUANT	2	Ich Range
ICHRANGEMODE	TOGGLE	F	Ich Auto Range
ICHOFFSETENABLE	TOGGLE	T	Ich Offset Enable
ICHOFFSET	QUANT	0	Ich Offset (V)
ICHFILTER	IQUANT	3	Ich Filter
VCHRANGE	IQUANT	2	Vch Range
VCHRANGEMODE	TOGGLE	F	Vch Auto Range
VCHOFFSETENABLE	TOGGLE	T	Vch Offset Enable
VCHOFFSET	QUANT	0	Vch Offset (V)
VCHFILTER	IQUANT	3	Vch Filter
ACHRANGE	IQUANT	2	Ach Range
ACHOFFSETENABLE	TOGGLE	F	Ach Offset Enable
ACHOFFSET	QUANT	0	Ach Offset (V)
ACHFILTER	IQUANT	1	Ach Filter
IERANGELOWERLIMIT	IQUANT	13	I/E Range Lower Limit
IERANGEMODE	TOGGLE	F	I/E AutoRange
IERANGE	IQUANT	13	I/E Range
POSFEEDENABLE	TOGGLE	F	Positive Feedback IR Comp
POSFEEDRESISTANCE	QUANT	0	Positive Feedback Resistance (ohm)
ACHSELECT	IQUANT	4	Ach Select
SENSECABLEID	IQUANT	14	Sense Cable ID
PWRCABLEID	IQUANT	8	Power Cable ID
DCCALDATE	LABEL	10/1/2025	DC Calibration Date
ACCALDATE	LABEL	10/1/2025	AC Calibration Date
THERMOSELECT	IQUANT	1	Thermo Select
FRAMEWORKVERSION	LABEL	7.10.1	Framework Version
INSTRUMENTVERSION	LABEL	4.80	Instrument Version
COMMVERSION	LABEL	5.10	Communications Version
CPUPLDVERSION	LABEL	6.00	CPU PLD Version
CTRLPLDVERSION	LABEL	3.21	CTRL PLD Version
PSTATPLDVERSION	LABEL	0.00	PSTAT PLD Version
BOOSTERDCCALDATE	LABEL	10/1/2025	Booster DC Calibration Date
ZCURVE	TABLE
	Pt	Time	Freq	Zreal	Zimag	Zsig	Zmod	Zphz	Idc	Vdc	IERange	Imod	Vmod	Temp
	#	s	Hz	ohm	ohm	V	ohm	°	A	V	#	A	V	°C
	0	4	100078,1	0,0307786	0,0027687	1	0,0309029	5,14027	9,158525	2,371659	13	0,1619854	0,0049846	70,12447
	1	6	79453,13	0,0307581	0,0018995	1	0,0308167	3,533827	9,120842	2,371671	13	0,1624893	0,0049909	70,13419
	2	8	63140,62	0,0308141	0,0011758	1	0,0308366	2,185173	9,096032	2,371672	13	0,1626591	0,0050014	70,13366
	3	10	50203,12	0,0309081	0,000556	1	0,0309131	1,03049	8,953666	2,371683	13	0,1619479	0,0049952	70,12595
	4	12	39890,62	0,0310248	1,723486E-005	1	0,0310248	0,0318288	8,933883	2,37168	13	0,1619159	0,0050145	70,13734
	5	14	31640,63	0,0311607	-0,0004297	1	0,0311637	-0,7900414	8,936369	2,371679	13	0,1829565	0,0056942	70,13715
	6	16	25171,88	0,0313368	-0,0008264	1	0,0313477	-1,510569	8,887915	2,371665	13	0,1748047	0,0054749	70,13338
	7	18	20015,62	0,0315401	-0,0011818	1	0,0315622	-2,145802	8,853885	2,371665	13	0,1685558	0,0053167	70,13313
	8	20	15890,62	0,0317564	-0,0014886	1	0,0317913	-2,683764	8,964848	2,371675	13	0,1638499	0,0052069	70,14823
	9	21	12609,38	0,0319814	-0,001788	1	0,0320313	-3,199953	8,9851	2,371683	13	0,1598455	0,0051187	70,15428
	10	23	10078,13	0,0322942	-0,002082	1	0,0323612	-3,688695	8,939543	2,371669	13	0,1568295	0,0050743	70,14962
	11	25	8015,625	0,0325681	-0,0022999	1	0,0326492	-4,039367	8,968966	2,371683	13	0,1545255	0,0050446	70,15502
	12	26	6328,125	0,0329799	-0,002685	1	0,033089	-4,65445	8,915914	2,371658	13	0,151581	0,0050153	70,16038
	13	28	5015,625	0,0332315	-0,0027939	1	0,0333487	-4,805723	8,946455	2,371674	13	0,150706	0,0050256	70,16085
	14	30	3984,375	0,033601	-0,0030321	1	0,0337375	-5,156305	9,009125	2,371674	13	0,1483766	0,0050057	70,18423
	15	32	3170,956	0,0339597	-0,0032848	1	0,0341182	-5,524749	8,994584	2,371676	13	0,1465475	0,0049999	70,18056
	16	33	2527,573	0,0344024	-0,0035312	1	0,0345831	-5,860562	8,923044	2,37168	13	0,144496	0,0049971	70,19402
	17	35	1976,103	0,034864	-0,00382	1	0,0350726	-6,252936	8,980495	2,371654	13	0,1424712	0,0049968	70,19088
	18	37	1577,524	0,0353097	-0,0040864	1	0,0355454	-6,601502	8,956854	2,371663	13	0,1406379	0,004999	70,2169
	19	38	1265,625	0,0357977	-0,0043613	1	0,0360624	-6,946147	8,985265	2,371674	13	0,138588	0,0049978	70,23952
	20	40	998,264	0,0363209	-0,0047344	1	0,0366281	-7,426548	9,013535	2,371677	13	0,1363478	0,0049942	70,24277
	21	41	796,875	0,0369156	-0,0051586	1	0,0372743	-7,954998	9,052751	2,371674	13	0,1340715	0,0049974	70,25838
	22	43	627,7902	0,0375572	-0,0055538	1	0,0379656	-8,411763	9,095688	2,371676	13	0,1316047	0,0049964	70,26034
	23	44	505,5147	0,03817	-0,0059587	1	0,0386323	-8,87276	9,059019	2,371639	13	0,1273642	0,0049584	70,29183
	24	46	397,9953	0,0389795	-0,0065664	1	0,0395287	-9,56216	9,077132	2,371647	13	0,1269969	0,0050427	70,30218
	25	47	315,5048	0,0397049	-0,0070803	1	0,0403313	-10,11082	9,104959	2,371684	13	0,1237321	0,0050037	70,30649
	26	49	252,4038	0,0405282	-0,0077358	1	0,0412598	-10,8063	9,075865	2,371646	13	0,1209838	0,0050001	70,32877
	27	50	198,6229	0,0414021	-0,0083672	1	0,0422391	-11,4254	9,062309	2,371655	13	0,1181016	0,0049935	70,32986
	28	52	158,3615	0,0425808	-0,0090623	1	0,0435344	-12,01475	9,067693	2,371652	13	0,1146456	0,0049942	70,35371
	29	54	125,558	0,0437724	-0,0099139	1	0,0448811	-12,76149	9,076201	2,371673	13	0,1112541	0,0049952	70,35769
	30	55	100,4464	0,0448658	-0,0108452	1	0,0461579	-13,58917	9,097832	2,371661	13	0,1081972	0,0049954	70,37212
	31	57	79,00281	0,0466016	-0,0119076	1	0,0480989	-14,33347	9,113581	2,371656	13	0,1038218	0,0049945	70,38339
	32	58	63,3446	0,0479315	-0,0130152	1	0,0496671	-15,19164	9,162913	2,371645	13	0,1005146	0,0049928	70,37762
	33	60	50,22321	0,0502256	-0,0135186	1	0,0520131	-15,06462	9,177491	2,371656	13	0,095843	0,0049854	70,39124
	34	62	38,42213	0,0519832	-0,0140215	1	0,053841	-15,09523	9,17765	2,37166	13	0,092131	0,0049606	70,40551
	35	64	31,25	0,0525902	-0,0145207	1	0,054558	-15,43538	9,175464	2,371652	13	0,0903412	0,004929	70,41489
	36	65	24,93351	0,0565977	-0,0187206	1	0,0596135	-18,30247	9,173434	2,371631	13	0,0810065	0,0048292	70,43848
	37	67	19,86229	0,0597437	-0,0265815	1	0,0653903	-23,98554	9,152452	2,371635	13	0,0822787	0,0053803	70,44228
	38	69	15,625	0,0694739	-0,0307162	1	0,0759612	-23,85149	9,267118	2,3716	13	0,0658219	0,0049999	70,4744
	39	70	12,40079	0,0613044	-0,0268711	1	0,066935	-23,66892	9,322333	2,371633	13	0,074552	0,0049902	70,47628
	40	72	9,93114	0,0619547	-0,0274079	1	0,0677464	-23,86391	9,301991	2,371628	13	0,0737425	0,0049958	70,50608
	41	73	7,944915	0,0727482	-0,022141	1	0,0760429	-16,92766	9,273056	2,371625	13	0,0657652	0,005001	70,5257
	42	75	6,317385	0,067468	-0,0279799	1	0,0730398	-22,52442	9,283907	2,37163	13	0,0685316	0,0050055	70,55952
	43	78	5,008013	0,0745021	-0,0226886	1	0,0778803	-16,93738	9,462615	2,371628	13	0,0643137	0,0050088	70,57635
	44	80	3,945707	0,081146	-0,0244234	1	0,0847419	-16,75078	9,454209	2,371618	13	0,0589317	0,004994	70,59722
	45	84	3,158693	0,0865489	-0,0143576	1	0,0877317	-9,419025	9,410928	2,371625	13	0,0569865	0,0049995	70,61771
	46	88	2,504006	0,0801357	-0,0262754	1	0,0843334	-18,15363	9,43613	2,371623	13	0,0573509	0,0048432	70,61847
	47	91	1,998082	0,0844688	-0,0163459	1	0,0860358	-10,95219	9,466064	2,371619	13	0,0591297	0,0050919	70,62218
	48	97	1,584686	0,0881948	-0,0196286	1	0,0903526	-12,54725	9,428872	2,371627	13	0,0557145	0,0050369	70,63503
	49	104	1,266892	0,0861739	-0,0152663	1	0,0875157	-10,04612	9,479392	2,371623	13	0,0572239	0,0050099	70,6578
	50	109	0,999041	0,1150707	-0,0256365	1	0,1178919	-12,55975	9,485989	2,371619	13	0,0425213	0,0050141	70,64905
	51	116	0,7923428	0,0886314	-0,0191599	1	0,0906787	-12,19824	9,6296	2,371621	13	0,05511	0,004998	70,6302
	52	124	0,6334459	0,0972398	-0,0128718	1	0,098088	-7,540509	9,57749	2,371625	13	0,0509633	0,0049994	70,59608
	53	133	0,5040323	0,1064573	-0,0143452	1	0,1074195	-7,674437	9,64936	2,371623	13	0,0466275	0,005009	70,52129
	54	145	0,400641	0,1301746	-0,0193102	1	0,1315991	-8,437788	9,314153	2,371628	13	0,0380409	0,0050063	70,49096
	55	171	0,316723	0,112812	-0,0769823	1	0,1365753	-34,30939	9,357055	2,37163	13	0,0365748	0,0049953	70,48957
	56	189	0,2520161	0,1502659	-0,0075788	1	0,1504569	-2,887333	9,58031	2,371623	13	0,0332376	0,0050009	70,56422
	57	238	0,2003205	0,1248189	-0,0158312	1	0,1258188	-7,228418	9,57196	2,371622	13	0,0397483	0,0050011	70,56595
	58	265	0,1588983	0,1047283	-0,0108119	1	0,1052849	-5,89418	9,64524	2,37162	13	0,0474622	0,0049971	70,61961
	59	296	0,1260081	0,0850621	-0,0211644	1	0,0876556	-13,97211	9,74907	2,371612	13	0,0570107	0,0049973	70,70514
	60	335	0,1001603	0,1596932	-0,0334548	1	0,1631598	-11,83202	10,05867	2,371605	13	0,0306845	0,0050065	71,07667
