EXPLAIN
TAG	EISPOT
TITLE	LABEL	Potentiostatic EIS	Test Identifier
DATE	LABEL	3/4/2026	Date
TIME	LABEL	3:34:27	Time
NOTES	NOTES	1	Notes...
	
PSTAT	PSTAT	REF3000-46189	Potentiostat
VDC	POTEN	1,01504E+000	F	Last Measured Potential (V)
FREQINIT	QUANT	1,00000E+005	Initial Freq. (Hz)
FREQFINAL	QUANT	1,00000E-001	Final Freq. (Hz)
PTSPERDEC	QUANT	1,00000E+001	Points/decade
VAC	QUANT	5,00000E+000	AC Voltage (mV rms)
AREA	QUANT	2,50000E+001	Sample Area (cm^2)
SPEED	SELECTOR	1	Optimize for:
DRIFTCOR	SELECTOR	0	Drift Correction
THD	SELECTOR	0	THD
ZGUESS	QUANT	2,00000E-002	Estimated Z (ohms)
EOC	QUANT	0,0049827	Open Circuit (V)
SEQUENCER	TOGGLE	TRUE	Run as Sequence
PSTATMODEL	IQUANT	6	Pstat Model
PSTATSECTION	LABEL	REF30K-46189	Pstat Section
PSTATSERIALNO	LABEL	46189	Pstat Serial Number
CTRLMODE	IQUANT	1	Control Mode
ELECTROMETER	IQUANT	0	RE=0 or CS=1
IESTAB	IQUANT	0	I/E Stability
CASPEED	IQUANT	3	Control Amp Speed
CONVENTION	IQUANT	1	Current Convention
ICHRANGE	IQUANT	2	Ich Range
ICHRANGEMODE	TOGGLE	F	Ich Auto Range
ICHOFFSETENABLE	TOGGLE	T	Ich Offset Enable
ICHOFFSET	QUANT	0	Ich Offset (V)
ICHFILTER	IQUANT	3	Ich Filter
VCHRANGE	IQUANT	2	Vch Range
VCHRANGEMODE	TOGGLE	F	Vch Auto Range
VCHOFFSETENABLE	TOGGLE	T	Vch Offset Enable
VCHOFFSET	QUANT	0	Vch Offset (V)
VCHFILTER	IQUANT	3	Vch Filter
ACHRANGE	IQUANT	2	Ach Range
ACHOFFSETENABLE	TOGGLE	F	Ach Offset Enable
ACHOFFSET	QUANT	0	Ach Offset (V)
ACHFILTER	IQUANT	1	Ach Filter
IERANGELOWERLIMIT	IQUANT	13	I/E Range Lower Limit
IERANGEMODE	TOGGLE	F	I/E AutoRange
IERANGE	IQUANT	13	I/E Range
POSFEEDENABLE	TOGGLE	F	Positive Feedback IR Comp
POSFEEDRESISTANCE	QUANT	0	Positive Feedback Resistance (ohm)
ACHSELECT	IQUANT	4	Ach Select
SENSECABLEID	IQUANT	14	Sense Cable ID
PWRCABLEID	IQUANT	8	Power Cable ID
DCCALDATE	LABEL	10/1/2025	DC Calibration Date
ACCALDATE	LABEL	10/1/2025	AC Calibration Date
THERMOSELECT	IQUANT	1	Thermo Select
FRAMEWORKVERSION	LABEL	7.10.1	Framework Version
INSTRUMENTVERSION	LABEL	4.80	Instrument Version
COMMVERSION	LABEL	5.10	Communications Version
CPUPLDVERSION	LABEL	6.00	CPU PLD Version
CTRLPLDVERSION	LABEL	3.21	CTRL PLD Version
PSTATPLDVERSION	LABEL	0.00	PSTAT PLD Version
BOOSTERDCCALDATE	LABEL	10/1/2025	Booster DC Calibration Date
ZCURVE	TABLE
	Pt	Time	Freq	Zreal	Zimag	Zsig	Zmod	Zphz	Idc	Vdc	IERange	Imod	Vmod	Temp
	#	s	Hz	ohm	ohm	V	ohm	°	A	V	#	A	V	°C
	0	3	100078,1	0,044366	0,0007617	1	0,0443726	0,983596	1,44904	1,013406	13	0,1130529	0,0049935	69,33498
	1	5	79453,13	0,0447682	-0,0002922	1	0,0447691	-0,3739719	1,442302	1,013414	13	0,1497564	0,0066809	69,34585
	2	7	63140,62	0,0452534	-0,0011435	1	0,0452678	-1,447487	1,43845	1,0134	13	0,1271532	0,0057394	69,34392
	3	8	50203,12	0,0457627	-0,0019241	1	0,0458032	-2,40758	1,435254	1,01341	13	0,1138486	0,0052026	69,33321
	4	10	39890,62	0,0463279	-0,0025785	1	0,0463996	-3,185618	1,432377	1,013415	13	0,1076797	0,0049874	69,3259
	5	11	31640,63	0,0469687	-0,0031668	1	0,0470753	-3,85727	1,432537	1,013406	13	0,1049256	0,004933	69,33698
	6	13	25171,88	0,0475804	-0,0037229	1	0,0477258	-4,473998	1,433122	1,013403	13	0,1032873	0,004925	69,32534
	7	14	20015,62	0,0482496	-0,0042117	1	0,0484331	-4,988696	1,435556	1,013411	13	0,1019995	0,0049371	69,33373
	8	16	15890,62	0,0489558	-0,0046276	1	0,049174	-5,399905	1,447273	1,013395	13	0,1007681	0,0049532	69,3159
	9	18	12609,38	0,049697	-0,0050283	1	0,0499507	-5,777514	1,451805	1,013394	13	0,0994553	0,0049666	69,31475
	10	19	10078,13	0,0504911	-0,0054409	1	0,0507834	-6,150454	1,454092	1,013399	13	0,0980381	0,0049779	69,31817
	11	21	8015,625	0,0512707	-0,0058829	1	0,0516071	-6,545554	1,454934	1,013411	13	0,0964984	0,0049795	69,32192
	12	23	6328,125	0,0521708	-0,0063045	1	0,0525503	-6,890388	1,45458	1,013404	13	0,094902	0,0049868	69,32217
	13	24	5015,625	0,0530491	-0,0067914	1	0,053482	-7,295363	1,452808	1,01341	13	0,0933354	0,0049915	69,32658
	14	26	3984,375	0,05405	-0,0072314	1	0,0545316	-7,620387	1,442982	1,013398	13	0,0915931	0,0049946	69,33517
	15	28	3170,956	0,0550011	-0,0077899	1	0,05555	-8,061292	1,446375	1,013415	13	0,0898715	0,0049923	69,34565
	16	29	2527,573	0,0560561	-0,0083513	1	0,0566748	-8,47364	1,430241	1,013412	13	0,0881623	0,0049965	69,35974
	17	31	1976,103	0,0572335	-0,0090399	1	0,057943	-8,97558	1,426723	1,013415	13	0,0861565	0,0049921	69,37288
	18	32	1577,524	0,0584468	-0,0097128	1	0,0592483	-9,435281	1,428356	1,013407	13	0,0843998	0,0050005	69,36765
	19	34	1265,625	0,0596564	-0,0104656	1	0,0605674	-9,95023	1,425718	1,0134	13	0,0825764	0,0050014	69,38084
	20	36	998,264	0,0609969	-0,0113458	1	0,0620431	-10,537	1,441614	1,013403	13	0,0805121	0,0049952	69,38809
	21	38	796,875	0,0623439	-0,0122514	1	0,0635363	-11,1177	1,442593	1,013407	13	0,0788096	0,0050073	69,39671
	22	39	627,7902	0,0640852	-0,0134015	1	0,0654714	-11,81153	1,446188	1,013401	13	0,0762549	0,0049925	69,40423
	23	41	505,5147	0,0657757	-0,0146186	1	0,0673806	-12,5303	1,44065	1,01339	13	0,0730447	0,0049599	69,39007
	24	42	397,9953	0,0678065	-0,0160568	1	0,0696817	-13,32247	1,424327	1,01341	13	0,0720643	0,0050442	69,4129
	25	44	315,5048	0,0699528	-0,0175745	1	0,0721267	-14,10278	1,424734	1,013398	13	0,0692374	0,0050074	69,41673
	26	45	252,4038	0,0721679	-0,0191652	1	0,0746694	-14,87243	1,426678	1,013392	13	0,0668041	0,0049965	69,4335
	27	47	198,6229	0,074749	-0,0210916	1	0,0776676	-15,75723	1,436033	1,013395	13	0,0642621	0,0049961	69,43527
	28	48	158,3615	0,0773718	-0,0230832	1	0,0807417	-16,61201	1,441067	1,013404	13	0,061822	0,0049948	69,44043
	29	50	125,558	0,0804149	-0,0252906	1	0,0842981	-17,45847	1,44235	1,0134	13	0,0592378	0,0049956	69,44268
	30	52	100,4464	0,0835682	-0,0276716	1	0,0880305	-18,32105	1,443736	1,013393	13	0,0567347	0,0049956	69,44466
	31	53	79,00281	0,0872484	-0,0305087	1	0,0924287	-19,27351	1,441331	1,013394	13	0,0540311	0,0049948	69,4379
	32	55	63,3446	0,0909683	-0,0335746	1	0,0969664	-20,25809	1,429916	1,013401	13	0,0514764	0,004992	69,44014
	33	56	50,22321	0,0953709	-0,0369527	1	0,1022796	-21,17952	1,428756	1,013389	13	0,0487662	0,0049881	69,44682
	34	58	38,42213	0,1008947	-0,0417582	1	0,1091947	-22,48365	1,427855	1,013396	13	0,0454006	0,0049577	69,44606
	35	59	31,25	0,1052337	-0,0459237	1	0,1148178	-23,57632	1,429241	1,013402	13	0,0429455	0,004931	69,44351
	36	61	24,93351	0,1111087	-0,0511055	1	0,1222985	-24,70052	1,427962	1,013402	13	0,0394773	0,0048281	69,43462
	37	63	19,86229	0,119194	-0,0571254	1	0,1321761	-25,60671	1,426721	1,013367	13	0,0406319	0,0053706	69,44621
	38	64	15,625	0,1232478	-0,0648433	1	0,1392647	-27,7498	1,427055	1,013386	13	0,0359056	0,0050004	69,41977
	39	66	12,40079	0,1286712	-0,0684033	1	0,1457233	-27,99572	1,435908	1,013364	13	0,0343366	0,0050037	69,42135
	40	67	9,93114	0,1356187	-0,0832415	1	0,1591276	-31,5412	1,431247	1,01338	13	0,0314121	0,0049985	69,43462
	41	69	7,944915	0,1527477	-0,093603	1	0,1791463	-31,49975	1,425278	1,013385	13	0,027907	0,0049994	69,43121
	42	71	6,317385	0,1675273	-0,10097	1	0,1956025	-31,07769	1,426492	1,013386	13	0,0255844	0,0050044	69,42015
	43	73	5,008013	0,1849369	-0,1153178	1	0,2179446	-31,94569	1,425008	1,013383	13	0,022924	0,0049962	69,43399
	44	76	3,945707	0,1985908	-0,1212443	1	0,2326768	-31,40505	1,424858	1,013387	13	0,0214876	0,0049997	69,45042
	45	79	3,158693	0,2187038	-0,1236076	1	0,2512174	-29,47438	1,423629	1,013383	13	0,0199202	0,0050043	69,47002
	46	82	2,504006	0,2428467	-0,1414057	1	0,2810162	-30,21154	1,422229	1,013386	13	0,0172071	0,0048421	69,48589
	47	87	1,998082	0,2696712	-0,1445621	1	0,3059751	-28,19433	1,418664	1,013391	13	0,0166244	0,0050913	69,49216
	48	92	1,584686	0,2889995	-0,1579325	1	0,3293378	-28,65573	1,419063	1,013391	13	0,0152779	0,0050345	69,50276
	49	97	1,266892	0,3238249	-0,1594302	1	0,360944	-26,21263	1,411974	1,013388	13	0,0139	0,005019	69,52842
	50	103	0,999041	0,3570603	-0,1644991	1	0,393131	-24,73571	1,407593	1,013391	13	0,0127332	0,005007	69,5237
	51	110	0,7923428	0,3915727	-0,1357698	1	0,4144425	-19,12293	1,406279	1,013392	13	0,0120726	0,0050041	69,50285
	52	117	0,6334459	0,4180832	-0,1294107	1	0,4376536	-17,19905	1,402055	1,01339	13	0,0114218	0,0049993	69,48954
	53	125	0,5040323	0,4410744	-0,1169654	1	0,4563195	-14,85201	1,407091	1,013385	13	0,0109599	0,0050015	69,4478
	54	137	0,400641	0,448588	-0,1197363	1	0,464293	-14,94487	1,392633	1,013388	13	0,0107762	0,0050035	69,34235
	55	151	0,316723	0,4242074	-0,0683866	1	0,4296843	-9,157878	1,380527	1,013387	13	0,0116347	0,0049994	69,22775
	56	168	0,2520161	0,4342159	-0,0620639	1	0,438629	-8,134381	1,367381	1,013389	13	0,0113968	0,004999	69,11698
	57	190	0,2003205	0,5465266	-0,0861128	1	0,5532691	-8,954129	1,361046	1,013389	13	0,0090397	0,0050015	68,93187
	58	216	0,1588983	0,5010732	-0,0616121	1	0,5048469	-7,009915	1,349404	1,013391	13	0,0098999	0,004998	68,80803
	59	248	0,1260081	0,5128289	-0,0434198	1	0,5146638	-4,839538	1,344181	1,013393	13	0,0097176	0,0050013	68,90097
	60	286	0,1001603	0,5038992	-0,0395178	1	0,5054464	-4,484186	1,337489	1,013392	13	0,0098954	0,0050016	68,95377
