EXPLAIN
TAG	EISPOT
TITLE	LABEL	Potentiostatic EIS	Test Identifier
DATE	LABEL	26/3/2026	Date
TIME	LABEL	11:15:03	Time
NOTES	NOTES	1	Notes...
	
PSTAT	PSTAT	REF3000-46189	Potentiostat
VDC	POTEN	2,02969E+000	F	Last Measured Potential (V)
FREQINIT	QUANT	1,00000E+005	Initial Freq. (Hz)
FREQFINAL	QUANT	1,00000E-001	Final Freq. (Hz)
PTSPERDEC	QUANT	1,00000E+001	Points/decade
VAC	QUANT	5,00000E+000	AC Voltage (mV rms)
AREA	QUANT	2,50000E+001	Sample Area (cm^2)
SPEED	SELECTOR	1	Optimize for:
DRIFTCOR	SELECTOR	0	Drift Correction
THD	SELECTOR	0	THD
ZGUESS	QUANT	2,00000E-002	Estimated Z (ohms)
EOC	QUANT	0,2162097	Open Circuit (V)
SEQUENCER	TOGGLE	TRUE	Run as Sequence
PSTATMODEL	IQUANT	6	Pstat Model
PSTATSECTION	LABEL	REF30K-46189	Pstat Section
PSTATSERIALNO	LABEL	46189	Pstat Serial Number
CTRLMODE	IQUANT	1	Control Mode
ELECTROMETER	IQUANT	0	RE=0 or CS=1
IESTAB	IQUANT	0	I/E Stability
CASPEED	IQUANT	3	Control Amp Speed
CONVENTION	IQUANT	1	Current Convention
ICHRANGE	IQUANT	2	Ich Range
ICHRANGEMODE	TOGGLE	F	Ich Auto Range
ICHOFFSETENABLE	TOGGLE	T	Ich Offset Enable
ICHOFFSET	QUANT	0	Ich Offset (V)
ICHFILTER	IQUANT	3	Ich Filter
VCHRANGE	IQUANT	2	Vch Range
VCHRANGEMODE	TOGGLE	F	Vch Auto Range
VCHOFFSETENABLE	TOGGLE	T	Vch Offset Enable
VCHOFFSET	QUANT	0	Vch Offset (V)
VCHFILTER	IQUANT	3	Vch Filter
ACHRANGE	IQUANT	2	Ach Range
ACHOFFSETENABLE	TOGGLE	F	Ach Offset Enable
ACHOFFSET	QUANT	0	Ach Offset (V)
ACHFILTER	IQUANT	1	Ach Filter
IERANGELOWERLIMIT	IQUANT	13	I/E Range Lower Limit
IERANGEMODE	TOGGLE	F	I/E AutoRange
IERANGE	IQUANT	13	I/E Range
POSFEEDENABLE	TOGGLE	F	Positive Feedback IR Comp
POSFEEDRESISTANCE	QUANT	0	Positive Feedback Resistance (ohm)
ACHSELECT	IQUANT	4	Ach Select
SENSECABLEID	IQUANT	14	Sense Cable ID
PWRCABLEID	IQUANT	8	Power Cable ID
DCCALDATE	LABEL	10/1/2025	DC Calibration Date
ACCALDATE	LABEL	10/1/2025	AC Calibration Date
THERMOSELECT	IQUANT	1	Thermo Select
FRAMEWORKVERSION	LABEL	7.10.1	Framework Version
INSTRUMENTVERSION	LABEL	4.80	Instrument Version
COMMVERSION	LABEL	5.10	Communications Version
CPUPLDVERSION	LABEL	6.00	CPU PLD Version
CTRLPLDVERSION	LABEL	3.21	CTRL PLD Version
PSTATPLDVERSION	LABEL	0.00	PSTAT PLD Version
BOOSTERDCCALDATE	LABEL	10/1/2025	Booster DC Calibration Date
ZCURVE	TABLE
	Pt	Time	Freq	Zreal	Zimag	Zsig	Zmod	Zphz	Idc	Vdc	IERange	Imod	Vmod	Temp
	#	s	Hz	ohm	ohm	V	ohm	°	A	V	#	A	V	°C
	0	3	100078,1	0,0246563	0,0038681	1	0,0249578	8,91588	1,462837	2,026946	13	0,201008	0,0049937	65,02566
	1	5	79453,13	0,0245784	0,0029482	1	0,0247546	6,840023	1,463041	2,026986	13	0,2839799	0,0070066	65,03015
	2	7	63140,62	0,0245344	0,0021754	1	0,0246307	5,066974	1,455775	2,026947	13	0,2674318	0,006569	65,01862
	3	9	50203,12	0,024535	0,0015005	1	0,0245809	3,499655	1,458352	2,02697	13	0,2496169	0,0061221	65,01247
	4	11	39890,62	0,0245444	0,0009203	1	0,0245616	2,14725	1,462892	2,026996	13	0,2344055	0,0057475	65,02207
	5	13	31640,63	0,0246151	0,000367	1	0,0246178	0,8540909	1,460102	2,026989	13	0,2209287	0,005432	65,02096
	6	14	25171,88	0,0247181	-0,0001068	1	0,0247183	-0,2476355	1,461691	2,026987	13	0,212156	0,0052394	65,01643
	7	16	20015,62	0,0248432	-0,0005488	1	0,0248493	-1,265526	1,460338	2,026945	13	0,2064347	0,0051266	65,00505
	8	18	15890,62	0,0250056	-0,00098	1	0,0250248	-2,244321	1,459326	2,026978	13	0,2026291	0,0050687	64,98662
	9	19	12609,38	0,0252429	-0,0013918	1	0,0252812	-3,155964	1,45852	2,026985	13	0,1989611	0,0050287	64,98886
	10	21	10078,13	0,0254975	-0,0017623	1	0,0255584	-3,953812	1,456118	2,026985	13	0,1962681	0,0050154	64,99045
	11	23	8015,625	0,0258086	-0,0021664	1	0,0258993	-4,79823	1,453355	2,026978	13	0,1932511	0,0050045	64,97988
	12	24	6328,125	0,0261583	-0,0025626	1	0,0262835	-5,595073	1,430063	2,026979	13	0,1902761	0,0050008	64,97919
	13	26	5015,625	0,0265493	-0,0029526	1	0,026713	-6,345968	1,427315	2,026973	13	0,1870605	0,0049967	64,96281
	14	28	3984,375	0,0270012	-0,0033676	1	0,0272104	-7,109281	1,425685	2,026954	13	0,1835157	0,0049934	64,94919
	15	29	3170,956	0,0274978	-0,0037481	1	0,0277521	-7,761972	1,424079	2,026967	13	0,180024	0,004996	64,9531
	16	31	2527,573	0,0280295	-0,0041903	1	0,028341	-8,502416	1,421859	2,026977	13	0,1761873	0,0049933	64,96381
	17	33	1976,103	0,0286587	-0,0046729	1	0,0290372	-9,260858	1,421849	2,026972	13	0,1719501	0,0049929	64,94649
	18	34	1577,524	0,0293172	-0,0051215	1	0,0297612	-9,90917	1,422535	2,02696	13	0,1677795	0,0049933	64,94769
	19	36	1265,625	0,0299958	-0,0056015	1	0,0305143	-10,57766	1,422631	2,026983	13	0,1639335	0,0050023	64,94463
	20	37	998,264	0,0307841	-0,006179	1	0,0313981	-11,34957	1,421109	2,026977	13	0,1592679	0,0050007	64,94515
	21	39	796,875	0,0316334	-0,0067561	1	0,0323468	-12,05575	1,428144	2,026992	13	0,1542163	0,0049884	64,95679
	22	40	627,7902	0,0326163	-0,0073978	1	0,0334448	-12,77922	1,422635	2,026993	13	0,1494525	0,0049984	64,96071
	23	42	505,5147	0,033548	-0,0080452	1	0,0344992	-13,48558	1,423204	2,026973	13	0,1426963	0,004961	64,96329
	24	43	397,9953	0,0347185	-0,0088013	1	0,0358167	-14,22513	1,422762	2,026973	13	0,1401179	0,0050412	64,96435
	25	45	315,5048	0,0359683	-0,0095971	1	0,0372267	-14,93959	1,422947	2,02695	13	0,1341727	0,0050083	64,95518
	26	46	252,4038	0,0372759	-0,0103802	1	0,0386942	-15,56086	1,421526	2,02696	13	0,1289097	0,0049964	64,95702
	27	48	198,6229	0,0387849	-0,0112855	1	0,0403934	-16,22379	1,424569	2,026978	13	0,1235367	0,0049951	64,95346
	28	49	158,3615	0,0402997	-0,0122262	1	0,0421134	-16,87687	1,429197	2,026973	13	0,1185011	0,0049936	64,94579
	29	51	125,558	0,0419754	-0,0132618	1	0,0440205	-17,53348	1,428169	2,026962	13	0,1134183	0,0049947	64,95036
	30	53	100,4464	0,0436858	-0,0143277	1	0,0459753	-18,15798	1,427255	2,02696	13	0,1086612	0,004997	64,9494
	31	54	79,00281	0,045714	-0,0156295	1	0,048312	-18,87539	1,426772	2,02695	13	0,1033325	0,004993	64,94055
	32	56	63,3446	0,0475838	-0,0169689	1	0,050519	-19,62679	1,42709	2,026943	13	0,0987813	0,0049908	64,95041
	33	58	50,22321	0,049966	-0,0185746	1	0,0533068	-20,3923	1,423131	2,026965	13	0,0935288	0,004986	64,94763
	34	59	38,42213	0,0527432	-0,0206675	1	0,0566479	-21,39778	1,44952	2,026971	13	0,0875406	0,0049592	64,93728
	35	61	31,25	0,0553168	-0,0225627	1	0,0597413	-22,18961	1,447807	2,026952	13	0,0824596	0,0049264	64,94289
	36	62	24,93351	0,058475	-0,0245456	1	0,0634177	-22,77085	1,447897	2,026962	13	0,0760865	0,0048253	64,9418
	37	64	19,86229	0,0621722	-0,0271608	1	0,0678461	-23,59881	1,448361	2,026934	13	0,0792988	0,0053802	64,93965
	38	66	15,625	0,0659609	-0,02964	1	0,0723144	-24,19712	1,446758	2,02694	13	0,0692897	0,0050107	64,93495
	39	67	12,40079	0,0704026	-0,0322459	1	0,077436	-24,60881	1,444793	2,02692	13	0,064616	0,0050036	64,93586
	40	69	9,93114	0,0750983	-0,0349419	1	0,0828293	-24,9517	1,44339	2,026947	13	0,0602571	0,0049911	64,93506
	41	70	7,944915	0,0804537	-0,0371147	1	0,0886019	-24,76473	1,44315	2,026934	13	0,0564178	0,0049987	64,93715
	42	72	6,317385	0,0859295	-0,0398665	1	0,0947271	-24,88865	1,414227	2,026937	13	0,0528376	0,0050052	64,94402
	43	74	5,008013	0,0922582	-0,0427467	1	0,1016802	-24,86004	1,413877	2,026924	13	0,0491016	0,0049927	64,93656
	44	77	3,945707	0,1041922	-0,0452924	1	0,1136109	-23,49461	1,433402	2,026942	13	0,0440371	0,0050031	64,93286
	45	80	3,158693	0,1066475	-0,046452	1	0,1163249	-23,5363	1,444103	2,026944	13	0,043045	0,0050072	64,9206
	46	84	2,504006	0,1133332	-0,0487032	1	0,1233548	-23,25487	1,444457	2,026946	13	0,0391978	0,0048418	64,93499
	47	87	1,998082	0,1212936	-0,0509211	1	0,1315488	-22,77351	1,407906	2,026953	13	0,038606	0,0050832	64,94035
	48	91	1,584686	0,1299672	-0,0514605	1	0,1397844	-21,6011	1,408983	2,026949	13	0,0360682	0,0050447	64,95103
	49	97	1,266892	0,1381229	-0,053448	1	0,1481035	-21,15442	1,409478	2,026951	13	0,0338644	0,0050173	64,97173
	50	104	0,999041	0,1445586	-0,0532612	1	0,1540582	-20,22583	1,438811	2,026947	13	0,0324891	0,0050064	64,9885
	51	111	0,7923428	0,1394736	-0,0454558	1	0,146694	-18,05128	1,419997	2,026951	13	0,0340709	0,0049987	65,02271
	52	119	0,6334459	0,1602293	-0,0539749	1	0,169076	-18,61664	1,404669	2,026954	13	0,0295789	0,0050015	65,04385
	53	128	0,5040323	0,1714749	-0,0564825	1	0,1805378	-18,23147	1,407528	2,026948	13	0,0277031	0,0050018	65,03381
	54	140	0,400641	0,1771062	-0,0565657	1	0,1859201	-17,71288	1,40351	2,02695	13	0,0269081	0,005003	65,04836
	55	151	0,316723	0,1832719	-0,0554558	1	0,1914783	-16,83517	1,403043	2,026952	13	0,0260983	0,0049974	65,03058
	56	169	0,2520161	0,192849	-0,0576247	1	0,2012743	-16,63653	1,398345	2,026951	13	0,0248568	0,0050031	64,90017
	57	186	0,2003205	0,2039687	-0,059878	1	0,2125761	-16,36037	1,396111	2,026951	13	0,0235165	0,0049991	64,78368
	58	213	0,1588983	0,2055705	-0,0670709	1	0,2162354	-18,0698	1,389123	2,026951	13	0,0231223	0,0049999	64,77221
	59	245	0,1260081	0,2206951	-0,0634391	1	0,229632	-16,03737	1,384805	2,026951	13	0,021788	0,0050032	64,61498
	60	283	0,1001603	0,2358332	-0,0792987	1	0,2488083	-18,58517	1,383663	2,026953	13	0,0200903	0,0049987	64,45872
