EXPLAIN
TAG	CHRONOP
TITLE	LABEL	Chronopotentiometry Scan	Test Identifier
DATE	LABEL	26/3/2026	Date
TIME	LABEL	7:33:08	Time
NOTES	NOTES	1	Notes...
	Estabilizacion previa a la curva de polarizacio
PSTAT	PSTAT	REF3000-46189	Potentiostat
IPRESTEP	QUANT	2,50000E+000	Pre-step Current(A)
TPRESTEP	QUANT	0,00000E+000	Pre-step Delay Time (s)
ISTEP1	QUANT	2,50000E+000	Step 1 Current (A)
TSTEP1	QUANT	3,00000E+002	Step 1 Time (s)
ISTEP2	QUANT	2,50000E+000	Step 2 Current (A)
TSTEP2	QUANT	0,00000E+000	Step 2 Time (s)
SAMPLETIME	QUANT	1,00000E+000	Sample Period (s)
DECIMATE	TOGGLE	F	Decimate
VLIMITLOWER	QUANT	-4,00000E+000	Lower Limit V (V)
VLIMITUPPER	QUANT	4,00000E+000	Upper Limit V (V)
EQDELAY	QUANT	0,00000E+000	Equil. Time (s)
SAMPLINGMODE	SELECTOR	1	Sampling Mode
AREA	QUANT	2,50000E+001	Sample Area (cm^2)
ELECTRODETYPE	SELECTOR	0	Electrode Type
STRIPPING	TOGGLE	F	Used for Stripping
SEQUENCER	TOGGLE	TRUE	Run as Sequence
PSTATMODEL	IQUANT	6	Pstat Model
PSTATSECTION	LABEL	REF30K-46189	Pstat Section
PSTATSERIALNO	LABEL	46189	Pstat Serial Number
CTRLMODE	IQUANT	0	Control Mode
ELECTROMETER	IQUANT	0	RE=0 or CS=1
IESTAB	IQUANT	0	I/E Stability
CASPEED	IQUANT	4	Control Amp Speed
CONVENTION	IQUANT	1	Current Convention
ICHRANGE	IQUANT	2	Ich Range
ICHRANGEMODE	TOGGLE	T	Ich Auto Range
ICHOFFSETENABLE	TOGGLE	F	Ich Offset Enable
ICHOFFSET	QUANT	0	Ich Offset (V)
ICHFILTER	IQUANT	3	Ich Filter
VCHRANGE	IQUANT	3	Vch Range
VCHRANGEMODE	TOGGLE	T	Vch Auto Range
VCHOFFSETENABLE	TOGGLE	F	Vch Offset Enable
VCHOFFSET	QUANT	0	Vch Offset (V)
VCHFILTER	IQUANT	3	Vch Filter
ACHRANGE	IQUANT	2	Ach Range
ACHOFFSETENABLE	TOGGLE	F	Ach Offset Enable
ACHOFFSET	QUANT	0	Ach Offset (V)
ACHFILTER	IQUANT	1	Ach Filter
IERANGELOWERLIMIT	IQUANT	13	I/E Range Lower Limit
IERANGEMODE	TOGGLE	F	I/E AutoRange
IERANGE	IQUANT	13	I/E Range
POSFEEDENABLE	TOGGLE	F	Positive Feedback IR Comp
POSFEEDRESISTANCE	QUANT	0	Positive Feedback Resistance (ohm)
ACHSELECT	IQUANT	4	Ach Select
SENSECABLEID	IQUANT	14	Sense Cable ID
PWRCABLEID	IQUANT	8	Power Cable ID
DCCALDATE	LABEL	10/1/2025	DC Calibration Date
ACCALDATE	LABEL	10/1/2025	AC Calibration Date
THERMOSELECT	IQUANT	1	Thermo Select
FRAMEWORKVERSION	LABEL	7.10.1	Framework Version
INSTRUMENTVERSION	LABEL	4.80	Instrument Version
COMMVERSION	LABEL	5.10	Communications Version
CPUPLDVERSION	LABEL	6.00	CPU PLD Version
CTRLPLDVERSION	LABEL	3.21	CTRL PLD Version
PSTATPLDVERSION	LABEL	0.00	PSTAT PLD Version
BOOSTERDCCALDATE	LABEL	10/1/2025	Booster DC Calibration Date
CURVE	TABLE	301
	Pt	T	Vf	Im	Vu	Sig	Ach	IERange	Over	Temp
	#	s	V vs. Ref.	A	V	V	V	#	bits	deg C
	0	0	1,80890E+000	2,46370E+000	0,00000E+000	2,44750E-001	3,59490E-006	13	...........	65,12
	1	1	2,26228E+000	2,46400E+000	0,00000E+000	2,44750E-001	5,09490E-006	13	...........	65,11
	2	2	2,41160E+000	2,46408E+000	0,00000E+000	2,44750E-001	5,46157E-006	13	...........	65,11
	3	3	2,45537E+000	2,46428E+000	0,00000E+000	2,44750E-001	8,12823E-006	13	...........	65,10
	4	4	2,46655E+000	2,46442E+000	0,00000E+000	2,44750E-001	6,74490E-006	13	...........	65,09
	5	5	2,47234E+000	2,46443E+000	0,00000E+000	2,44750E-001	3,97824E-006	13	...........	65,08
	6	6	2,47557E+000	2,46444E+000	0,00000E+000	2,44750E-001	3,89490E-006	13	...........	65,08
	7	7	2,47721E+000	2,46423E+000	0,00000E+000	2,44750E-001	5,76157E-006	13	...........	65,07
	8	8	2,47726E+000	2,46429E+000	0,00000E+000	2,44750E-001	7,61157E-006	13	...........	65,06
	9	9	2,47709E+000	2,46433E+000	0,00000E+000	2,44750E-001	7,04490E-006	13	...........	65,06
	10	10	2,47557E+000	2,46456E+000	0,00000E+000	2,44750E-001	5,12824E-006	13	...........	65,05
	11	11	2,47335E+000	2,46443E+000	0,00000E+000	2,44750E-001	9,74490E-006	13	...........	65,04
	12	12	2,47020E+000	2,46432E+000	0,00000E+000	2,44750E-001	1,06116E-005	13	...........	65,05
	13	13	2,46688E+000	2,46434E+000	0,00000E+000	2,44750E-001	5,06157E-006	13	...........	65,03
	14	14	2,46302E+000	2,46439E+000	0,00000E+000	2,44750E-001	3,47824E-006	13	...........	65,03
	15	15	2,45849E+000	2,46426E+000	0,00000E+000	2,44750E-001	5,59490E-006	13	...........	65,02
	16	16	2,45397E+000	2,46445E+000	0,00000E+000	2,44750E-001	7,97823E-006	13	...........	65,02
	17	17	2,44911E+000	2,46438E+000	0,00000E+000	2,44750E-001	9,01157E-006	13	...........	65,01
	18	18	2,44373E+000	2,46447E+000	0,00000E+000	2,44750E-001	5,44490E-006	13	...........	65,01
	19	19	2,43827E+000	2,46441E+000	0,00000E+000	2,44750E-001	7,56156E-006	13	...........	65,00
	20	20	2,43276E+000	2,46438E+000	0,00000E+000	2,44750E-001	6,44491E-006	13	...........	65,00
	21	21	2,42711E+000	2,46438E+000	0,00000E+000	2,44750E-001	1,06116E-005	13	...........	65,00
	22	22	2,42132E+000	2,46452E+000	0,00000E+000	2,44750E-001	6,04491E-006	13	...........	65,00
	23	23	2,41526E+000	2,46449E+000	0,00000E+000	2,44750E-001	5,44490E-006	13	...........	64,99
	24	24	2,40989E+000	2,46439E+000	0,00000E+000	2,44750E-001	4,97824E-006	13	...........	64,99
	25	25	2,40465E+000	2,46441E+000	0,00000E+000	2,44750E-001	8,27824E-006	13	...........	64,98
	26	26	2,39930E+000	2,46455E+000	0,00000E+000	2,44750E-001	1,15616E-005	13	...........	64,98
	27	27	2,39401E+000	2,46445E+000	0,00000E+000	2,44750E-001	9,14490E-006	13	...........	64,97
	28	28	2,38862E+000	2,46458E+000	0,00000E+000	2,44750E-001	4,64490E-006	13	...........	64,96
	29	29	2,38323E+000	2,46462E+000	0,00000E+000	2,44750E-001	4,27823E-006	13	...........	64,96
	30	30	2,37800E+000	2,46444E+000	0,00000E+000	2,44750E-001	6,46157E-006	13	...........	64,95
	31	31	2,37180E+000	2,46446E+000	0,00000E+000	2,44750E-001	7,92824E-006	13	...........	64,94
	32	32	2,36538E+000	2,46452E+000	0,00000E+000	2,44750E-001	4,26157E-006	13	...........	64,93
	33	33	2,35882E+000	2,46452E+000	0,00000E+000	2,44750E-001	6,09491E-006	13	...........	64,92
	34	34	2,35208E+000	2,46456E+000	0,00000E+000	2,44750E-001	8,31157E-006	13	...........	64,93
	35	35	2,34509E+000	2,46465E+000	0,00000E+000	2,44750E-001	5,29491E-006	13	...........	64,92
	36	36	2,33788E+000	2,46466E+000	0,00000E+000	2,44750E-001	4,07824E-006	13	...........	64,92
	37	37	2,33065E+000	2,46454E+000	0,00000E+000	2,44750E-001	7,01157E-006	13	...........	64,92
	38	38	2,32381E+000	2,46457E+000	0,00000E+000	2,44750E-001	1,58449E-005	13	...........	64,91
	39	39	2,31578E+000	2,46468E+000	0,00000E+000	2,44750E-001	5,67824E-006	13	...........	64,90
	40	40	2,30799E+000	2,46462E+000	0,00000E+000	2,44750E-001	5,87824E-006	13	...........	64,90
	41	41	2,30216E+000	2,46471E+000	0,00000E+000	2,44750E-001	7,36157E-006	13	...........	64,89
	42	42	2,29681E+000	2,46463E+000	0,00000E+000	2,44750E-001	1,19116E-005	13	...........	64,89
	43	43	2,29275E+000	2,46461E+000	0,00000E+000	2,44750E-001	7,57824E-006	13	...........	64,89
	44	44	2,28728E+000	2,46475E+000	0,00000E+000	2,44750E-001	7,47823E-006	13	...........	64,88
	45	45	2,28329E+000	2,46479E+000	0,00000E+000	2,44750E-001	5,04491E-006	13	...........	64,87
	46	46	2,27912E+000	2,46469E+000	0,00000E+000	2,44750E-001	9,26157E-006	13	...........	64,87
	47	47	2,27491E+000	2,46483E+000	0,00000E+000	2,44750E-001	9,86157E-006	13	...........	64,86
	48	48	2,27095E+000	2,46484E+000	0,00000E+000	2,44750E-001	9,19490E-006	13	...........	64,85
	49	49	2,26759E+000	2,46486E+000	0,00000E+000	2,44750E-001	2,07824E-006	13	...........	64,84
	50	50	2,26471E+000	2,46475E+000	0,00000E+000	2,44750E-001	4,02824E-006	13	...........	64,84
	51	51	2,26162E+000	2,46468E+000	0,00000E+000	2,44750E-001	7,81157E-006	13	...........	64,84
	52	52	2,25864E+000	2,46457E+000	0,00000E+000	2,44750E-001	6,82823E-006	13	...........	64,83
	53	53	2,25593E+000	2,46458E+000	0,00000E+000	2,44750E-001	7,59490E-006	13	...........	64,83
	54	54	2,25332E+000	2,46459E+000	0,00000E+000	2,44750E-001	6,44491E-006	13	...........	64,82
	55	55	2,25073E+000	2,46454E+000	0,00000E+000	2,44750E-001	7,42824E-006	13	...........	64,81
	56	56	2,24836E+000	2,46469E+000	0,00000E+000	2,44750E-001	1,52823E-006	13	...........	64,81
	57	57	2,24684E+000	2,46462E+000	0,00000E+000	2,44750E-001	8,57823E-006	13	...........	64,80
	58	58	2,24470E+000	2,46465E+000	0,00000E+000	2,44750E-001	6,42824E-006	13	...........	64,79
	59	59	2,24194E+000	2,46471E+000	0,00000E+000	2,44750E-001	3,59490E-006	13	...........	64,78
	60	60	2,23922E+000	2,46466E+000	0,00000E+000	2,44750E-001	9,06157E-006	13	...........	64,78
	61	61	2,23743E+000	2,46463E+000	0,00000E+000	2,44750E-001	3,69490E-006	13	...........	64,77
	62	62	2,23568E+000	2,46473E+000	0,00000E+000	2,44750E-001	1,94490E-006	13	...........	64,76
	63	63	2,23356E+000	2,46456E+000	0,00000E+000	2,44750E-001	7,51157E-006	13	...........	64,75
	64	64	2,23185E+000	2,46461E+000	0,00000E+000	2,44750E-001	8,47824E-006	13	...........	64,75
	65	65	2,23000E+000	2,46461E+000	0,00000E+000	2,44750E-001	1,05782E-005	13	...........	64,73
	66	66	2,22785E+000	2,46451E+000	0,00000E+000	2,44750E-001	7,17824E-006	13	...........	64,73
	67	67	2,22549E+000	2,46455E+000	0,00000E+000	2,44750E-001	6,86157E-006	13	...........	64,73
	68	68	2,22284E+000	2,46462E+000	0,00000E+000	2,44750E-001	6,07824E-006	13	...........	64,72
	69	69	2,21982E+000	2,46458E+000	0,00000E+000	2,44750E-001	7,91157E-006	13	...........	64,71
	70	70	2,21789E+000	2,46460E+000	0,00000E+000	2,44750E-001	2,21157E-006	13	...........	64,70
	71	71	2,21593E+000	2,46466E+000	0,00000E+000	2,44750E-001	7,94490E-006	13	...........	64,70
	72	72	2,21358E+000	2,46469E+000	0,00000E+000	2,44750E-001	6,06157E-006	13	...........	64,70
	73	73	2,21111E+000	2,46460E+000	0,00000E+000	2,44750E-001	7,04490E-006	13	...........	64,69
	74	74	2,20653E+000	2,46470E+000	0,00000E+000	2,44750E-001	4,76157E-006	13	...........	64,69
	75	75	2,20510E+000	2,46473E+000	0,00000E+000	2,44750E-001	6,94905E-007	13	...........	64,68
	76	76	2,20332E+000	2,46476E+000	0,00000E+000	2,44750E-001	3,97824E-006	13	...........	64,67
	77	77	2,20185E+000	2,46465E+000	0,00000E+000	2,44750E-001	6,46157E-006	13	...........	64,67
	78	78	2,19874E+000	2,46461E+000	0,00000E+000	2,44750E-001	3,09490E-006	13	...........	64,65
	79	79	2,19719E+000	2,46472E+000	0,00000E+000	2,44750E-001	2,72824E-006	13	...........	64,65
	80	80	2,19586E+000	2,46459E+000	0,00000E+000	2,44750E-001	1,02616E-005	13	...........	64,65
	81	81	2,19481E+000	2,46459E+000	0,00000E+000	2,44750E-001	1,80116E-005	13	...........	64,64
	82	82	2,19255E+000	2,46473E+000	0,00000E+000	2,44750E-001	5,76157E-006	13	...........	64,64
	83	83	2,19115E+000	2,46479E+000	0,00000E+000	2,44750E-001	2,26157E-006	13	...........	64,64
	84	84	2,18814E+000	2,46476E+000	0,00000E+000	2,44750E-001	8,69490E-006	13	...........	64,63
	85	85	2,18555E+000	2,46459E+000	0,00000E+000	2,44750E-001	4,26157E-006	13	...........	64,63
	86	86	2,18482E+000	2,46475E+000	0,00000E+000	2,44750E-001	4,34490E-006	13	...........	64,63
	87	87	2,18448E+000	2,46479E+000	0,00000E+000	2,44750E-001	3,92823E-006	13	...........	64,61
	88	88	2,18334E+000	2,46451E+000	0,00000E+000	2,44750E-001	1,03449E-005	13	...........	64,62
	89	89	2,18226E+000	2,46469E+000	0,00000E+000	2,44750E-001	1,27116E-005	13	...........	64,62
	90	90	2,18270E+000	2,46465E+000	0,00000E+000	2,44750E-001	-1,68843E-006	13	...........	64,62
	91	91	2,18201E+000	2,46466E+000	0,00000E+000	2,44750E-001	8,81157E-006	13	...........	64,62
	92	92	2,18143E+000	2,46471E+000	0,00000E+000	2,44750E-001	6,72823E-006	13	...........	64,62
	93	93	2,18065E+000	2,46477E+000	0,00000E+000	2,44750E-001	8,94490E-006	13	...........	64,62
	94	94	2,17979E+000	2,46464E+000	0,00000E+000	2,44750E-001	6,47824E-006	13	...........	64,62
	95	95	2,17864E+000	2,46482E+000	0,00000E+000	2,44750E-001	6,97824E-006	13	...........	64,62
	96	96	2,17832E+000	2,46482E+000	0,00000E+000	2,44750E-001	2,46157E-006	13	...........	64,62
	97	97	2,17730E+000	2,46485E+000	0,00000E+000	2,44750E-001	7,47823E-006	13	...........	64,62
	98	98	2,17637E+000	2,46479E+000	0,00000E+000	2,44750E-001	2,31157E-006	13	...........	64,62
	99	99	2,17574E+000	2,46478E+000	0,00000E+000	2,44750E-001	1,01282E-005	13	...........	64,62
	100	100	2,17482E+000	2,46484E+000	0,00000E+000	2,44750E-001	4,42824E-006	13	...........	64,62
	101	101	2,17368E+000	2,46474E+000	0,00000E+000	2,44750E-001	7,69490E-006	13	...........	64,62
	102	102	2,17302E+000	2,46487E+000	0,00000E+000	2,44750E-001	5,16157E-006	13	...........	64,61
	103	103	2,17319E+000	2,46489E+000	0,00000E+000	2,44750E-001	4,91157E-006	13	...........	64,61
	104	104	2,17232E+000	2,46480E+000	0,00000E+000	2,44750E-001	1,38782E-005	13	...........	64,60
	105	105	2,17122E+000	2,46461E+000	0,00000E+000	2,44750E-001	8,47824E-006	13	...........	64,60
	106	106	2,17098E+000	2,46463E+000	0,00000E+000	2,44750E-001	9,12823E-006	13	...........	64,61
	107	107	2,17206E+000	2,46488E+000	0,00000E+000	2,44750E-001	8,37824E-006	13	...........	64,60
	108	108	2,17169E+000	2,46487E+000	0,00000E+000	2,44750E-001	4,52824E-006	13	...........	64,60
	109	109	2,17153E+000	2,46476E+000	0,00000E+000	2,44750E-001	5,01157E-006	13	...........	64,60
	110	110	2,17018E+000	2,46461E+000	0,00000E+000	2,44750E-001	8,31157E-006	13	...........	64,60
	111	111	2,16841E+000	2,46491E+000	0,00000E+000	2,44750E-001	7,69490E-006	13	...........	64,59
	112	112	2,16674E+000	2,46477E+000	0,00000E+000	2,44750E-001	3,29491E-006	13	...........	64,59
	113	113	2,16483E+000	2,46485E+000	0,00000E+000	2,44750E-001	9,91157E-006	13	...........	64,60
	114	114	2,16406E+000	2,46463E+000	0,00000E+000	2,44750E-001	8,12823E-006	13	...........	64,59
	115	115	2,16835E+000	2,46487E+000	0,00000E+000	2,44750E-001	5,27823E-006	13	...........	64,60
	116	116	2,16718E+000	2,46477E+000	0,00000E+000	2,44750E-001	9,11157E-006	13	...........	64,60
	117	117	2,16529E+000	2,46490E+000	0,00000E+000	2,44750E-001	3,26157E-006	13	...........	64,60
	118	118	2,16417E+000	2,46458E+000	0,00000E+000	2,44750E-001	8,19490E-006	13	...........	64,60
	119	119	2,16445E+000	2,46470E+000	0,00000E+000	2,44750E-001	6,72823E-006	13	...........	64,60
	120	120	2,16423E+000	2,46475E+000	0,00000E+000	2,44750E-001	6,24490E-006	13	...........	64,61
	121	121	2,16186E+000	2,46482E+000	0,00000E+000	2,44750E-001	3,26157E-006	13	...........	64,61
	122	122	2,16292E+000	2,46470E+000	0,00000E+000	2,44750E-001	1,28949E-005	13	...........	64,61
	123	123	2,16411E+000	2,46473E+000	0,00000E+000	2,44750E-001	6,07824E-006	13	...........	64,61
	124	124	2,16432E+000	2,46485E+000	0,00000E+000	2,44750E-001	9,12823E-006	13	...........	64,61
	125	125	2,16280E+000	2,46485E+000	0,00000E+000	2,44750E-001	8,22823E-006	13	...........	64,62
	126	126	2,16335E+000	2,46482E+000	0,00000E+000	2,44750E-001	4,51157E-006	13	...........	64,61
	127	127	2,16384E+000	2,46478E+000	0,00000E+000	2,44750E-001	4,39490E-006	13	...........	64,61
	128	128	2,16267E+000	2,46486E+000	0,00000E+000	2,44750E-001	8,52823E-006	13	...........	64,61
	129	129	2,16084E+000	2,46479E+000	0,00000E+000	2,44750E-001	1,64490E-006	13	...........	64,60
	130	130	2,15970E+000	2,46486E+000	0,00000E+000	2,44750E-001	1,27449E-005	13	...........	64,60
	131	131	2,15896E+000	2,46489E+000	0,00000E+000	2,44750E-001	5,62823E-006	13	...........	64,60
	132	132	2,15808E+000	2,46474E+000	0,00000E+000	2,44750E-001	7,42824E-006	13	...........	64,59
	133	133	2,15731E+000	2,46472E+000	0,00000E+000	2,44750E-001	6,14490E-006	13	...........	64,59
	134	134	2,15751E+000	2,46472E+000	0,00000E+000	2,44750E-001	8,06157E-006	13	...........	64,59
	135	135	2,15658E+000	2,46483E+000	0,00000E+000	2,44750E-001	1,17782E-005	13	...........	64,59
	136	136	2,15583E+000	2,46497E+000	0,00000E+000	2,44750E-001	7,66157E-006	13	...........	64,58
	137	137	2,15540E+000	2,46485E+000	0,00000E+000	2,44750E-001	7,81157E-006	13	...........	64,59
	138	138	2,15547E+000	2,46490E+000	0,00000E+000	2,44750E-001	4,66157E-006	13	...........	64,59
	139	139	2,15607E+000	2,46483E+000	0,00000E+000	2,44750E-001	7,51157E-006	13	...........	64,59
	140	140	2,15640E+000	2,46476E+000	0,00000E+000	2,44750E-001	1,14116E-005	13	...........	64,59
	141	141	2,15552E+000	2,46483E+000	0,00000E+000	2,44750E-001	3,99490E-006	13	...........	64,58
	142	142	2,15427E+000	2,46467E+000	0,00000E+000	2,44750E-001	4,19490E-006	13	...........	64,58
	143	143	2,15386E+000	2,46476E+000	0,00000E+000	2,44750E-001	4,31157E-006	13	...........	64,58
	144	144	2,15381E+000	2,46472E+000	0,00000E+000	2,44750E-001	3,67824E-006	13	...........	64,58
	145	145	2,15459E+000	2,46484E+000	0,00000E+000	2,44750E-001	9,46157E-006	13	...........	64,57
	146	146	2,15497E+000	2,46485E+000	0,00000E+000	2,44750E-001	1,05616E-005	13	...........	64,57
	147	147	2,15488E+000	2,46477E+000	0,00000E+000	2,44750E-001	1,20616E-005	13	...........	64,57
	148	148	2,15393E+000	2,46482E+000	0,00000E+000	2,44750E-001	2,82824E-006	13	...........	64,57
	149	149	2,15290E+000	2,46491E+000	0,00000E+000	2,44750E-001	6,11157E-006	13	...........	64,56
	150	150	2,15174E+000	2,46501E+000	0,00000E+000	2,44750E-001	7,89490E-006	13	...........	64,56
	151	151	2,15175E+000	2,46492E+000	0,00000E+000	2,44750E-001	1,09616E-005	13	...........	64,56
	152	152	2,15069E+000	2,46472E+000	0,00000E+000	2,44750E-001	3,97824E-006	13	...........	64,56
	153	153	2,15003E+000	2,46482E+000	0,00000E+000	2,44750E-001	1,22282E-005	13	...........	64,56
	154	154	2,14974E+000	2,46486E+000	0,00000E+000	2,44750E-001	9,71157E-006	13	...........	64,56
	155	155	2,14926E+000	2,46490E+000	0,00000E+000	2,44750E-001	8,54490E-006	13	...........	64,55
	156	156	2,14761E+000	2,46474E+000	0,00000E+000	2,44750E-001	2,99490E-006	13	...........	64,55
	157	157	2,14645E+000	2,46481E+000	0,00000E+000	2,44750E-001	1,24116E-005	13	...........	64,54
	158	158	2,14593E+000	2,46481E+000	0,00000E+000	2,44750E-001	4,91157E-006	13	...........	64,54
	159	159	2,14437E+000	2,46480E+000	0,00000E+000	2,44750E-001	1,14949E-005	13	...........	64,53
	160	160	2,14461E+000	2,46462E+000	0,00000E+000	2,44750E-001	1,26449E-005	13	...........	64,53
	161	161	2,14483E+000	2,46468E+000	0,00000E+000	2,44750E-001	1,07616E-005	13	...........	64,52
	162	162	2,14454E+000	2,46466E+000	0,00000E+000	2,44750E-001	1,39282E-005	13	...........	64,52
	163	163	2,14436E+000	2,46466E+000	0,00000E+000	2,44750E-001	9,42824E-006	13	...........	64,51
	164	164	2,14316E+000	2,46476E+000	0,00000E+000	2,44750E-001	1,44282E-005	13	...........	64,50
	165	165	2,14283E+000	2,46480E+000	0,00000E+000	2,44750E-001	6,86157E-006	13	...........	64,51
	166	166	2,14243E+000	2,46471E+000	0,00000E+000	2,44750E-001	8,27824E-006	13	...........	64,50
	167	167	2,14249E+000	2,46471E+000	0,00000E+000	2,44750E-001	8,61157E-006	13	...........	64,49
	168	168	2,14104E+000	2,46477E+000	0,00000E+000	2,44750E-001	6,11157E-006	13	...........	64,48
	169	169	2,14028E+000	2,46474E+000	0,00000E+000	2,44750E-001	8,51157E-006	13	...........	64,48
	170	170	2,13978E+000	2,46485E+000	0,00000E+000	2,44750E-001	3,97824E-006	13	...........	64,47
	171	171	2,13953E+000	2,46490E+000	0,00000E+000	2,44750E-001	3,99490E-006	13	...........	64,46
	172	172	2,13916E+000	2,46471E+000	0,00000E+000	2,44750E-001	1,03449E-005	13	...........	64,45
	173	173	2,13838E+000	2,46464E+000	0,00000E+000	2,44750E-001	6,86157E-006	13	...........	64,45
	174	174	2,13617E+000	2,46471E+000	0,00000E+000	2,44750E-001	7,36157E-006	13	...........	64,45
	175	175	2,13704E+000	2,46476E+000	0,00000E+000	2,44750E-001	1,67782E-005	13	...........	64,44
	176	176	2,13558E+000	2,46471E+000	0,00000E+000	2,44750E-001	8,87823E-006	13	...........	64,43
	177	177	2,13434E+000	2,46462E+000	0,00000E+000	2,44750E-001	7,14490E-006	13	...........	64,42
	178	178	2,13360E+000	2,46482E+000	0,00000E+000	2,44750E-001	9,67824E-006	13	...........	64,42
	179	179	2,13204E+000	2,46455E+000	0,00000E+000	2,44750E-001	5,46157E-006	13	...........	64,40
	180	180	2,13098E+000	2,46459E+000	0,00000E+000	2,44750E-001	1,36949E-005	13	...........	64,40
	181	181	2,13048E+000	2,46478E+000	0,00000E+000	2,44750E-001	1,00782E-005	13	...........	64,40
	182	182	2,13006E+000	2,46475E+000	0,00000E+000	2,44750E-001	5,17823E-006	13	...........	64,39
	183	183	2,12980E+000	2,46476E+000	0,00000E+000	2,44750E-001	6,54490E-006	13	...........	64,39
	184	184	2,12911E+000	2,46472E+000	0,00000E+000	2,44750E-001	1,14782E-005	13	...........	64,38
	185	185	2,12742E+000	2,46475E+000	0,00000E+000	2,44750E-001	7,44490E-006	13	...........	64,37
	186	186	2,12828E+000	2,46471E+000	0,00000E+000	2,44750E-001	2,02824E-006	13	...........	64,37
	187	187	2,12818E+000	2,46478E+000	0,00000E+000	2,44750E-001	6,24490E-006	13	...........	64,36
	188	188	2,12829E+000	2,46475E+000	0,00000E+000	2,44750E-001	7,01157E-006	13	...........	64,35
	189	189	2,12799E+000	2,46475E+000	0,00000E+000	2,44750E-001	1,11782E-005	13	...........	64,35
	190	190	2,12867E+000	2,46472E+000	0,00000E+000	2,44750E-001	5,39490E-006	13	...........	64,35
	191	191	2,12781E+000	2,46468E+000	0,00000E+000	2,44750E-001	1,15949E-005	13	...........	64,34
	192	192	2,12913E+000	2,46466E+000	0,00000E+000	2,44750E-001	9,96157E-006	13	...........	64,34
	193	193	2,12948E+000	2,46481E+000	0,00000E+000	2,44750E-001	8,61157E-006	13	...........	64,34
	194	194	2,12992E+000	2,46483E+000	0,00000E+000	2,44750E-001	5,56157E-006	13	...........	64,34
	195	195	2,12972E+000	2,46486E+000	0,00000E+000	2,44750E-001	8,79490E-006	13	...........	64,33
	196	196	2,12973E+000	2,46481E+000	0,00000E+000	2,44750E-001	6,52824E-006	13	...........	64,33
	197	197	2,12884E+000	2,46469E+000	0,00000E+000	2,44750E-001	6,32823E-006	13	...........	64,32
	198	198	2,12909E+000	2,46470E+000	0,00000E+000	2,44750E-001	7,94490E-006	13	...........	64,33
	199	199	2,12819E+000	2,46472E+000	0,00000E+000	2,44750E-001	4,96157E-006	13	...........	64,32
	200	200	2,12838E+000	2,46474E+000	0,00000E+000	2,44750E-001	6,28235E-007	13	...........	64,32
	201	201	2,12871E+000	2,46463E+000	0,00000E+000	2,44750E-001	5,86157E-006	13	...........	64,31
	202	202	2,12899E+000	2,46469E+000	0,00000E+000	2,44750E-001	8,46157E-006	13	...........	64,31
	203	203	2,12858E+000	2,46471E+000	0,00000E+000	2,44750E-001	6,66157E-006	13	...........	64,31
	204	204	2,12845E+000	2,46464E+000	0,00000E+000	2,44750E-001	2,57824E-006	13	...........	64,29
	205	205	2,12848E+000	2,46473E+000	0,00000E+000	2,44750E-001	7,26157E-006	13	...........	64,29
	206	206	2,12893E+000	2,46460E+000	0,00000E+000	2,44750E-001	6,09491E-006	13	...........	64,28
	207	207	2,12921E+000	2,46470E+000	0,00000E+000	2,44750E-001	9,57824E-006	13	...........	64,28
	208	208	2,12916E+000	2,46472E+000	0,00000E+000	2,44750E-001	1,03116E-005	13	...........	64,27
	209	209	2,12789E+000	2,46482E+000	0,00000E+000	2,44750E-001	8,32824E-006	13	...........	64,27
	210	210	2,12690E+000	2,46482E+000	0,00000E+000	2,44750E-001	5,81157E-006	13	...........	64,26
	211	211	2,12682E+000	2,46483E+000	0,00000E+000	2,44750E-001	3,04490E-006	13	...........	64,26
	212	212	2,12554E+000	2,46468E+000	0,00000E+000	2,44750E-001	4,47824E-006	13	...........	64,26
	213	213	2,12337E+000	2,46475E+000	0,00000E+000	2,44750E-001	5,29491E-006	13	...........	64,25
	214	214	2,11934E+000	2,46472E+000	0,00000E+000	2,44750E-001	1,28116E-005	13	...........	64,25
	215	215	2,11869E+000	2,46468E+000	0,00000E+000	2,44750E-001	8,57823E-006	13	...........	64,24
	216	216	2,11840E+000	2,46471E+000	0,00000E+000	2,44750E-001	1,54116E-005	13	...........	64,23
	217	217	2,11934E+000	2,46479E+000	0,00000E+000	2,44750E-001	1,60449E-005	13	...........	64,24
	218	218	2,11896E+000	2,46479E+000	0,00000E+000	2,44750E-001	1,46282E-005	13	...........	64,23
	219	219	2,11869E+000	2,46481E+000	0,00000E+000	2,44750E-001	7,92824E-006	13	...........	64,23
	220	220	2,11892E+000	2,46479E+000	0,00000E+000	2,44750E-001	6,46157E-006	13	...........	64,23
	221	221	2,11896E+000	2,46476E+000	0,00000E+000	2,44750E-001	8,54490E-006	13	...........	64,24
	222	222	2,11876E+000	2,46484E+000	0,00000E+000	2,44750E-001	7,51157E-006	13	...........	64,23
	223	223	2,11870E+000	2,46487E+000	0,00000E+000	2,44750E-001	9,59490E-006	13	...........	64,24
	224	224	2,11875E+000	2,46487E+000	0,00000E+000	2,44750E-001	7,97823E-006	13	...........	64,24
	225	225	2,11863E+000	2,46482E+000	0,00000E+000	2,44750E-001	1,07949E-005	13	...........	64,24
	226	226	2,11846E+000	2,46476E+000	0,00000E+000	2,44750E-001	1,48949E-005	13	...........	64,25
	227	227	2,11831E+000	2,46474E+000	0,00000E+000	2,44750E-001	1,47449E-005	13	...........	64,25
	228	228	2,11803E+000	2,46475E+000	0,00000E+000	2,44750E-001	1,46282E-005	13	...........	64,25
	229	229	2,11661E+000	2,46473E+000	0,00000E+000	2,44750E-001	9,52823E-006	13	...........	64,25
	230	230	2,11566E+000	2,46474E+000	0,00000E+000	2,44750E-001	4,82823E-006	13	...........	64,25
	231	231	2,11585E+000	2,46483E+000	0,00000E+000	2,44750E-001	3,17824E-006	13	...........	64,26
	232	232	2,11528E+000	2,46475E+000	0,00000E+000	2,44750E-001	1,07282E-005	13	...........	64,26
	233	233	2,11544E+000	2,46477E+000	0,00000E+000	2,44750E-001	8,16157E-006	13	...........	64,26
	234	234	2,11484E+000	2,46481E+000	0,00000E+000	2,44750E-001	1,13616E-005	13	...........	64,26
	235	235	2,11584E+000	2,46481E+000	0,00000E+000	2,44750E-001	5,82823E-006	13	...........	64,27
	236	236	2,11608E+000	2,46483E+000	0,00000E+000	2,44750E-001	1,19616E-005	13	...........	64,27
	237	237	2,11557E+000	2,46489E+000	0,00000E+000	2,44750E-001	2,34491E-006	13	...........	64,28
	238	238	2,11544E+000	2,46482E+000	0,00000E+000	2,44750E-001	5,17823E-006	13	...........	64,29
	239	239	2,11494E+000	2,46482E+000	0,00000E+000	2,44750E-001	9,62824E-006	13	...........	64,29
	240	240	2,11516E+000	2,46485E+000	0,00000E+000	2,44750E-001	7,87823E-006	13	...........	64,30
	241	241	2,11479E+000	2,46486E+000	0,00000E+000	2,44750E-001	9,99490E-006	13	...........	64,30
	242	242	2,11468E+000	2,46486E+000	0,00000E+000	2,44750E-001	8,31157E-006	13	...........	64,30
	243	243	2,11517E+000	2,46483E+000	0,00000E+000	2,44750E-001	1,12949E-005	13	...........	64,31
	244	244	2,11522E+000	2,46473E+000	0,00000E+000	2,44750E-001	9,34490E-006	13	...........	64,30
	245	245	2,11554E+000	2,46478E+000	0,00000E+000	2,44750E-001	2,61157E-006	13	...........	64,31
	246	246	2,11561E+000	2,46479E+000	0,00000E+000	2,44750E-001	3,02823E-006	13	...........	64,31
	247	247	2,11609E+000	2,46475E+000	0,00000E+000	2,44750E-001	8,46157E-006	13	...........	64,31
	248	248	2,11630E+000	2,46467E+000	0,00000E+000	2,44750E-001	7,66157E-006	13	...........	64,31
	249	249	2,11623E+000	2,46476E+000	0,00000E+000	2,44750E-001	1,08116E-005	13	...........	64,31
	250	250	2,11512E+000	2,46475E+000	0,00000E+000	2,44750E-001	8,87823E-006	13	...........	64,32
	251	251	2,11433E+000	2,46486E+000	0,00000E+000	2,44750E-001	4,62824E-006	13	...........	64,32
	252	252	2,11419E+000	2,46485E+000	0,00000E+000	2,44750E-001	9,61157E-006	13	...........	64,32
	253	253	2,11395E+000	2,46486E+000	0,00000E+000	2,44750E-001	3,66157E-006	13	...........	64,32
	254	254	2,11393E+000	2,46481E+000	0,00000E+000	2,44750E-001	4,54491E-006	13	...........	64,32
	255	255	2,11377E+000	2,46480E+000	0,00000E+000	2,44750E-001	1,23116E-005	13	...........	64,32
	256	256	2,11460E+000	2,46477E+000	0,00000E+000	2,44750E-001	7,37824E-006	13	...........	64,32
	257	257	2,11488E+000	2,46471E+000	0,00000E+000	2,44750E-001	1,03282E-005	13	...........	64,32
	258	258	2,11463E+000	2,46477E+000	0,00000E+000	2,44750E-001	1,13116E-005	13	...........	64,32
	259	259	2,11412E+000	2,46491E+000	0,00000E+000	2,44750E-001	5,04491E-006	13	...........	64,32
	260	260	2,11386E+000	2,46482E+000	0,00000E+000	2,44750E-001	5,69491E-006	13	...........	64,32
	261	261	2,11381E+000	2,46483E+000	0,00000E+000	2,44750E-001	1,11782E-005	13	...........	64,32
	262	262	2,11375E+000	2,46480E+000	0,00000E+000	2,44750E-001	9,92824E-006	13	...........	64,32
	263	263	2,11363E+000	2,46479E+000	0,00000E+000	2,44750E-001	1,33949E-005	13	...........	64,32
	264	264	2,11288E+000	2,46461E+000	0,00000E+000	2,44750E-001	6,11157E-006	13	...........	64,32
	265	265	2,11243E+000	2,46457E+000	0,00000E+000	2,44750E-001	8,16157E-006	13	...........	64,32
	266	266	2,11262E+000	2,46463E+000	0,00000E+000	2,44750E-001	7,99491E-006	13	...........	64,32
	267	267	2,11225E+000	2,46457E+000	0,00000E+000	2,44750E-001	9,82824E-006	13	...........	64,32
	268	268	2,11176E+000	2,46471E+000	0,00000E+000	2,44750E-001	1,53116E-005	13	...........	64,33
	269	269	2,11163E+000	2,46481E+000	0,00000E+000	2,44750E-001	1,48616E-005	13	...........	64,32
	270	270	2,11179E+000	2,46472E+000	0,00000E+000	2,44750E-001	1,53449E-005	13	...........	64,33
	271	271	2,11311E+000	2,46463E+000	0,00000E+000	2,44750E-001	9,72824E-006	13	...........	64,33
	272	272	2,11383E+000	2,46489E+000	0,00000E+000	2,44750E-001	1,09616E-005	13	...........	64,32
	273	273	2,11433E+000	2,46474E+000	0,00000E+000	2,44750E-001	4,96157E-006	13	...........	64,33
	274	274	2,11466E+000	2,46481E+000	0,00000E+000	2,44750E-001	9,29490E-006	13	...........	64,34
	275	275	2,11465E+000	2,46483E+000	0,00000E+000	2,44750E-001	1,21616E-005	13	...........	64,34
	276	276	2,11406E+000	2,46495E+000	0,00000E+000	2,44750E-001	5,21157E-006	13	...........	64,34
	277	277	2,11437E+000	2,46483E+000	0,00000E+000	2,44750E-001	9,94490E-006	13	...........	64,34
	278	278	2,11456E+000	2,46484E+000	0,00000E+000	2,44750E-001	1,07449E-005	13	...........	64,35
	279	279	2,11422E+000	2,46483E+000	0,00000E+000	2,44750E-001	6,72823E-006	13	...........	64,36
	280	280	2,11424E+000	2,46480E+000	0,00000E+000	2,44750E-001	7,27823E-006	13	...........	64,37
	281	281	2,11396E+000	2,46479E+000	0,00000E+000	2,44750E-001	7,76157E-006	13	...........	64,37
	282	282	2,11399E+000	2,46474E+000	0,00000E+000	2,44750E-001	1,77824E-006	13	...........	64,37
	283	283	2,11403E+000	2,46488E+000	0,00000E+000	2,44750E-001	7,39490E-006	13	...........	64,38
	284	284	2,11372E+000	2,46480E+000	0,00000E+000	2,44750E-001	1,01949E-005	13	...........	64,38
	285	285	2,11301E+000	2,46461E+000	0,00000E+000	2,44750E-001	1,25616E-005	13	...........	64,38
	286	286	2,11255E+000	2,46464E+000	0,00000E+000	2,44750E-001	6,77824E-006	13	...........	64,39
	287	287	2,11211E+000	2,46469E+000	0,00000E+000	2,44750E-001	6,71157E-006	13	...........	64,40
	288	288	2,11166E+000	2,46476E+000	0,00000E+000	2,44750E-001	1,26449E-005	13	...........	64,41
	289	289	2,11011E+000	2,46482E+000	0,00000E+000	2,44750E-001	1,28616E-005	13	...........	64,41
	290	290	2,14425E+000	2,46478E+000	0,00000E+000	2,44750E-001	1,47616E-005	13	...........	64,42
	291	291	2,12177E+000	2,46482E+000	0,00000E+000	2,44750E-001	9,49490E-006	13	...........	64,42
	292	292	2,12521E+000	2,46471E+000	0,00000E+000	2,44750E-001	5,56157E-006	13	...........	64,43
	293	293	2,12780E+000	2,46474E+000	0,00000E+000	2,44750E-001	1,18782E-005	13	...........	64,44
	294	294	2,12887E+000	2,46470E+000	0,00000E+000	2,44750E-001	8,22823E-006	13	...........	64,44
	295	295	2,12831E+000	2,46465E+000	0,00000E+000	2,44750E-001	3,67824E-006	13	...........	64,44
	296	296	2,12794E+000	2,46457E+000	0,00000E+000	2,44750E-001	7,99491E-006	13	...........	64,45
	297	297	2,12707E+000	2,46471E+000	0,00000E+000	2,44750E-001	3,16157E-006	13	...........	64,45
	298	298	2,12504E+000	2,46472E+000	0,00000E+000	2,44750E-001	8,79490E-006	13	...........	64,46
	299	299	2,12262E+000	2,46468E+000	0,00000E+000	2,44750E-001	5,61158E-006	13	...........	64,46
	300	300	2,12475E+000	2,46463E+000	0,00000E+000	2,44750E-001	1,39449E-005	13	...........	64,46
